patient,recorded_date,classification,ecg_data,filtered_ecg,r_peaks,rr_intervals,rr_intervals_filtered,sdnn,lf_power,hf_power,avg_hr_bpm,rmssd,pnn50,hrv_alert,risk_flag,lf_hf_ratio
Apoorv Mahajan,2022-09-16 12:01:33-05:00,Poor Recording,"[-83.704, -88.454, -94.511, -101.436, -107.998, -112.395, -113.501, -110.791, -104.135, -93.986, -80.952, -66.245, -52.659, -43.729, -41.884, -48.851, -65.47, -90.929, -124.343, -161.786, -195.138, -218.654, -228.349, -223.587, -209.026, -180.484, -127.46, -41.244, 87.862, 253.124, 433.438, 610.067, 762.928, 881.33, 965.444, 1012.74, 1021.272, 991.427, 924.421, 824.455, 697.112, 543.107, 361.654, 160.132, -44.932, -226.064, -357.0, -427.372, -441.414, -419.638, -381.188, -334.787, -288.815, -242.335, -198.485, -167.284, -147.232, -139.09, -141.584, -146.839, -156.155, -169.848, -184.662, -200.417, -213.775, -221.378, -223.326, -219.851, -211.889, -201.321, -189.854, -178.981, -169.854, -163.206, -159.204, -157.729, -158.628, -161.422, -165.429, -169.945, -174.374, -178.328, -181.608, -184.13, -185.812, -186.604, -186.508, -185.583, -183.893, -181.459, -178.303, -174.414, -169.798, -164.549, -158.767, -152.559, -146.041, -139.306, -132.435, -125.513, -118.6, -111.726, -104.915, -98.17, -91.482, -84.856, -78.287, -71.775, -65.327, -58.919, -52.528, -46.132, -39.708, -33.237, -26.709, -20.108, -13.417, -6.641, 0.215, 7.143, 14.129, 21.167, 28.25, 35.37, 42.521, 49.695, 56.884, 64.083, 71.284, 78.478, 85.657, 92.805, 99.901, 106.929, 113.869, 120.697, 127.391, 133.928, 140.284, 146.438, 152.367, 158.054, 163.475, 168.603, 173.41, 177.86, 181.923, 185.577, 188.808, 191.608, 193.981, 195.941, 197.505, 198.696, 199.526, 200.0, 200.105, 199.815, 199.102, 197.934, 196.3, 194.205, 191.655, 188.651, 185.19, 181.261, 176.838, 171.877, 166.33, 160.131, 153.247, 145.674, 137.45, 128.656, 119.396, 109.796, 99.961, 89.97, 79.899, 69.815, 59.792, 49.904, 40.243, 30.92, 22.061, 13.821, 6.318, -0.366, -6.204, -11.226, -15.502, -19.137, -22.221, -24.824, -27.004, -28.803, -30.261, -31.414, -32.311, -33.006, -33.581, -34.146, -34.796, -35.6, -36.592, -37.76, -39.065, -40.434, -41.808, -43.139, -44.391, -45.552, -46.618, -47.591, -48.48, -49.298, -50.038, -50.675, -51.19, -51.565, -51.801, -51.917, -51.944, -51.929, -51.914, -51.937, -52.026, -52.2, -52.467, -52.827, -53.273, -53.789, -54.366, -54.998, -55.682, -56.413, -57.185, -57.983, -58.792, -59.593, -60.365, -61.086, -61.733, -62.289, -62.734, -63.055, -63.24, -63.279, -63.161, -62.877, -62.416, -61.766, -60.916, -59.857, -58.578, -57.07, -55.327, -53.343, -51.114, -48.639, -45.919, -42.954, -39.749, -36.307, -32.635, -28.74, -24.634, -20.325, -15.827, -11.153, -6.318, -1.34, 3.764, 8.976, 14.277, 19.645, 25.062, 30.506, 35.956, 41.391, 46.79, 52.133, 57.398, 62.565, 67.613, 72.522, 77.272, 81.845, 86.222, 90.385, 94.32, 98.01, 101.442, 104.605, 107.486, 110.076, 112.366, 114.349, 116.021, 117.376, 118.414, 119.132, 119.533, 119.619, 119.393, 118.862, 118.033, 116.912, 115.511, 113.839, 111.909, 109.732, 107.323, 104.697, 101.869, 98.856, 95.674, 92.341, 88.875, 85.294, 81.616, 77.861, 74.046, 70.192, 66.316, 62.438, 58.577, 54.751, 50.978, 47.277, 43.664, 40.157, 36.772, 33.523, 30.425, 27.492, 24.737, 22.172, 19.806, 17.651, 15.715, 14.005, 12.528, 11.29, 10.295, 9.545, 9.043, 8.789, 8.783, 9.024, 9.509, 10.235, 11.197, 12.39, 13.806, 15.439, 17.279, 19.317, 21.542, 23.943, 26.505, 29.216, 32.062, 35.026, 38.094, 41.247, 44.47, 47.745, 51.055, 54.38, 57.703, 61.006, 64.27, 67.476, 70.608, 73.647, 76.576, 79.378, 82.037, 84.538, 86.867, 89.009, 90.952, 92.684, 94.194, 95.473, 96.512, 97.303, 97.84, 98.118, 98.135, 97.888, 97.378, 96.605, 95.575, 94.291, 92.761, 90.993, 88.996, 86.781, 84.361, 81.748, 78.958, 76.006, 72.909, 69.685, 66.352, 62.931, 59.44, 55.9, 52.33, 48.749, 45.178, 41.635, 38.138, 34.705, 31.352, 28.096, 24.951, 21.932, 19.052, 16.321, 13.749, 11.344, 9.112, 7.054, 5.169, 3.454, 1.903, 0.508, -0.741, -1.856, -2.849, -3.736, -4.527, -5.237, -5.881, -6.475, -7.037, -7.592, -8.157, -8.753, -9.399, -10.115, -10.92, -11.828, -12.845, -13.977, -15.232, -16.625, -18.181, -19.925, -21.873, -24.041, -26.44, -29.069, -31.924, -34.985, -38.207, -41.544, -44.946, -48.371, -51.788, -55.163, -58.446, -61.576, -64.476, -67.069, -69.297, -71.1, -72.425, -73.269, -73.652, -73.648, -73.377, -72.931, -72.42, -71.986, -71.752, -71.86, -72.444, -73.566, -75.393, -78.236, -82.245, -87.424, -93.617, -100.308, -107.019, -113.422, -118.795, -122.146, -122.904, -120.905, -116.56, -111.099, -105.814, -101.771, -100.643, -104.767, -113.58, -123.478, -131.129, -131.546, -126.202, -124.779, -128.567, -134.443, -129.873, -86.813, 9.064, 161.391, 366.217, 596.239, 824.787, 1025.874, 1166.091, 1228.649, 1210.567, 1120.543, 986.673, 836.725, 686.065, 541.951, 401.369, 259.188, 119.786, -8.149, -115.687, -195.23, -245.685, -270.429, -273.233, -258.388, -231.213, -197.195, -161.933, -130.601, -105.924, -88.529, -78.706, -76.446, -80.518, -88.986, -99.13, -107.661, -112.896, -114.568, -112.478, -106.574, -97.224, -85.033, -71.311, -57.984, -46.125, -36.061, -27.999, -21.936, -17.82, -15.58, -14.763, -14.601, -14.559, -14.323, -13.656, -12.446, -10.574, -7.904, -4.419, -0.188, 4.726, 10.267, 16.382, 23.038, 30.176, 37.711, 45.555, 53.621, 61.806, 70.014, 78.143, 86.095, 93.799, 101.205, 108.28, 115.002, 121.362, 127.364, 133.022, 138.359, 143.395, 148.144, 152.624, 156.857, 160.864, 164.67, 168.3, 171.773, 175.109, 178.325, 181.435, 184.453, 187.387, 190.245, 193.033, 195.752, 198.409, 201.01, 203.559, 206.061, 208.52, 210.938, 213.315, 215.653, 217.948, 220.197, 222.393, 224.528, 226.594, 228.58, 230.476, 232.268, 233.945, 235.49, 236.891, 238.132, 239.196, 240.069, 240.734, 241.178, 241.385, 241.342, 241.037, 240.457, 239.593, 238.436, 236.976, 235.209, 233.127, 230.729, 228.012, 224.975, 221.621, 217.952, 213.973, 209.692, 205.117, 200.257, 195.125, 189.735, 184.101, 178.24, 172.168, 165.906, 159.474, 152.892, 146.183, 139.368, 132.47, 125.512, 118.516, 111.505, 104.502, 97.526, 90.6, 83.742, 76.972, 70.309, 63.769, 57.368, 51.122, 45.043, 39.145, 33.438, 27.931, 22.633, 17.55, 12.689, 8.053, 3.645, -0.532, -4.477, -8.192, -11.677, -14.936, -17.974, -20.794, -23.405, -25.812, -28.024, -30.049, -31.896, -33.575, -35.094, -36.463, -37.692, -38.79, -39.767, -40.632, -41.394, -42.061, -42.643, -43.146, -43.577, -43.943, -44.25, -44.503, -44.707, -44.866, -44.985, -45.066, -45.114, -45.13, -45.118, -45.077, -45.01, -44.916, -44.795, -44.646, -44.468, -44.258, -44.014, -43.734, -43.414, -43.05, -42.641, -42.18, -41.666, -41.093, -40.458, -39.757, -38.985, -38.139, -37.216, -36.214, -35.128, -33.958, -32.701, -31.355, -29.92, -28.394, -26.776, -25.065, -23.262, -21.365, -19.376, -17.295, -15.123, -12.863, -10.515, -8.084, -5.571, -2.982, -0.319, 2.412, 5.207, 8.059, 10.963, 13.912, 16.899, 19.915, 22.954, 26.007, 29.065, 32.12, 35.164, 38.189, 41.185, 44.145, 47.06, 49.924, 52.727, 55.462, 58.122, 60.699, 63.187, 65.579, 67.868, 70.049, 72.116, 74.066, 75.893, 77.594, 79.166, 80.606, 81.913, 83.085, 84.123, 85.026, 85.796, 86.435, 86.946, 87.334, 87.603, 87.758, 87.806, 87.753, 87.606, 87.372, 87.059, 86.675, 86.228, 85.725, 85.176, 84.588, 83.969, 83.327, 82.67, 82.004, 81.337, 80.675, 80.024, 79.39, 78.777, 78.192, 77.637, 77.117, 76.634, 76.191, 75.789, 75.428, 75.109, 74.83, 74.589, 74.382, 74.206, 74.054, 73.922, 73.803, 73.688, 73.569, 73.439, 73.288, 73.107, 72.886, 72.616, 72.287, 71.891, 71.419, 70.861, 70.211, 69.459, 68.601, 67.627, 66.534, 65.314, 63.964, 62.479, 60.855, 59.09, 57.182, 55.13, 52.935, 50.597, 48.121, 45.51, 42.768, 39.904, 36.924, 33.84, 30.661, 27.4, 24.07, 20.685, 17.261, 13.814, 10.362, 6.919, 3.504, 0.134, -3.176, -6.405, -9.537, -12.558, -15.455, -18.215, -20.825, -23.271, -25.533, -27.608, -29.496, -31.169, -32.608, -33.796, -34.713, -35.375, -35.813, -36.007, -35.939, -35.674, -35.269, -34.768, -34.237, -33.644, -32.91, -32.103, -31.329, -30.372, -28.975, -27.325, -25.426, -23.247, -21.411, -18.316, -12.401, -5.929, 0.401, 2.433, -4.819, -15.905, -27.201, -33.293, -26.728, -14.131, -1.112, 8.493, 8.364, 3.072, -2.75, -8.045, -9.984, -10.168, -10.654, -10.988, -11.359, -11.554, -11.085, -10.184, -9.047, -7.6, -5.846, -3.905, -1.9, 0.054, 1.795, 3.23, 4.3, 4.824, 4.638, 3.674, 1.721, -1.496, -6.101, -12.198, -19.726, -28.247, -37.291, -46.611, -55.646, -63.208, -68.552, -71.312, -71.033, -70.253, -71.654, -74.241, -79.395, -83.574, -79.913, -72.246, -61.749, -56.202, -72.092, -105.257, -145.29, -171.094, -146.344, -60.128, 80.667, 258.469, 440.064, 611.39, 773.875, 926.029, 1066.127, 1176.313, 1230.832, 1217.226, 1137.51, 1010.922, 862.178, 707.313, 553.437, 399.93, 247.609, 103.768, -21.848, -119.794, -185.747, -221.188, -229.792, -216.147, -185.697, -144.885, -100.891, -60.475, -27.898, -4.752, 8.383, 11.346, 5.15, -7.963, -24.593, -40.696, -53.838, -63.397, -69.068, -70.642, -68.368, -62.844, -55.501, -48.526, -43.206, -39.879, -38.709, -39.641, -42.563, -47.415, -53.721, -60.584, -67.403, -73.811, -79.544, -84.564, -88.799, -92.11, -94.495, -96.025, -96.758, -96.781, -96.159, -94.901, -93.056, -90.689, -87.866, -84.689, -81.258, -77.662, -73.998, -70.328, -66.693, -63.132, -59.664, -56.302, -53.049, -49.885, -46.786, -43.736, -40.723, -37.733, -34.754, -31.761, -28.725, -25.626, -22.442, -19.16, -15.767, -12.25, -8.598, -4.806, -0.872, 3.202, 7.413, 11.761, 16.246, 20.869, 25.632, 30.532, 35.57, 40.744, 46.054, 51.496, 57.06, 62.734, 68.501, 74.344, 80.243, 86.176, 92.123, 98.061, 103.97, 109.83, 115.626, 121.335, 126.937, 132.404, 137.704, 142.813, 147.711, 152.387, 156.834, 161.058, 165.074, 168.9, 172.556, 176.055, 179.397, 182.569, 185.544, 188.295, 190.791, 193.017, 194.976, 196.672, 198.101, 199.259, 200.131, 200.682, 200.863, 200.62, 199.89, 198.644, 196.877, 194.609, 191.899, 188.824, 185.473, 181.911, 178.166, 174.244, 170.155, 165.914, 161.548, 157.12, 152.701, 148.37, 144.224, 140.316, 136.674, 133.304, 130.165, 127.182, 124.269, 121.376, 118.504, 115.707, 113.041, 110.519, 108.136, 105.845, 103.589, 101.301, 98.888, 96.272, 93.394, 90.205, 86.669, 82.777, 78.503, 73.747, 68.356, 62.094, 54.716, 46.055, 35.968, 24.335, 11.054, -3.967, -20.804, -39.515, -60.17, -82.866, -107.674, -134.643, -163.763, -194.909, -227.88, -262.398, -298.145, -334.853, -372.272, -410.129, -448.153, -486.074, -523.608, -560.47, -596.347, -630.852, -663.612, -694.321, -722.743, -748.758, -772.322, -793.442, -812.178, -828.598, -842.773, -854.812, -864.844, -872.994, -879.422, -884.322, -887.936, -890.596, -892.654, -894.394, -896.046, -897.774, -899.685, -901.872, -904.392, -907.265, -910.499, -914.087, -918.014, -922.279, -926.864, -931.714, -936.743, -941.812, -946.759, -951.467, -955.857, -959.871, -963.485, -966.68, -969.449, -971.822, -973.841, -975.542, -976.955, -978.099, -978.986, -979.649, -980.132, -980.487, -980.776, -981.04, -981.302, -981.581, -981.881, -982.201, -982.534, -982.855, -983.131, -983.335, -983.446, -983.446, -983.321, -983.054, -982.622, -982.007, -981.191, -980.156, -978.892, -977.385, -975.625, -973.604, -971.32, -968.769, -965.955, -962.878, -959.538, -955.937, -952.074, -947.954, -943.58, -938.957, -934.089, -928.984, -923.65, -918.096, -912.335, -906.378, -900.236, -893.924, -887.456, -880.846, -874.109, -867.259, -860.313, -853.284, -846.187, -839.037, -831.849, -824.635, -817.41, -810.187, -802.979, -795.799, -788.658, -781.568, -774.54, -767.585, -760.712, -753.931, -747.25, -740.678, -734.221, -727.887, -721.681, -715.61, -709.676, -703.884, -698.234, -692.731, -687.373, -682.16, -677.093, -672.169, -667.386, -662.741, -658.23, -653.849, -649.591, -645.452, -641.424, -637.499, -633.669, -629.926, -626.261, -622.663, -619.122, -615.628, -612.169, -608.734, -605.31, -601.885, -598.444, -594.975, -591.464, -587.896, -584.259, -580.538, -576.72, -572.793, -568.743, -564.558, -560.227, -555.738, -551.08, -546.243, -541.217, -535.995, -530.569, -524.935, -519.087, -513.024, -506.745, -500.25, -493.541, -486.621, -479.495, -472.17, -464.653, -456.956, -449.091, -441.071, -432.913, -424.636, -416.263, -407.82, -399.332, -390.828, -382.339, -373.896, -365.531, -357.279, -349.169, -341.233, -333.504, -326.013, -318.794, -311.879, -305.303, -299.099, -293.297, -287.925, -283.013, -278.58, -274.642, -271.212, -268.302, -265.923, -264.098, -262.843, -262.174, -262.103, -262.636, -263.768, -265.478, -267.733, -270.471, -273.63, -277.139, -280.926, -284.926, -289.069, -293.278, -297.471, -301.55, -305.403, -308.931, -312.031, -314.604, -316.599, -318.003, -318.84, -319.206, -319.206, -318.926, -318.49, -318.036, -317.703, -317.679, -318.148, -319.245, -321.186, -324.252, -328.606, -334.286, -341.036, -348.189, -354.997, -360.74, -364.555, -365.485, -362.83, -356.237, -346.113, -333.893, -321.24, -309.601, -300.391, -294.856, -293.501, -296.011, -300.58, -303.25, -299.31, -284.138, -252.643, -199.736, -121.454, -14.824, 119.055, 273.944, 443.301, 621.346, 806.152, 998.286, 1191.455, 1369.71, 1507.698, 1580.182, 1576.925, 1506.643, 1392.853, 1259.031, 1113.977, 954.921, 777.979, 589.604, 413.718, 276.593, 190.471, 154.063, 151.856, 168.784, 204.128, 255.092, 315.6, 377.272, 421.957, 443.885, 451.355, 451.77, 456.225, 467.376, 477.005, 481.194, 477.944, 467.879, 456.454, 447.053, 440.727, 437.982, 438.153, 440.486, 444.454, 449.456, 454.65, 458.898, 461.464, 462.036, 460.482, 457.085, 452.261, 446.333, 439.854, 433.545, 427.911, 423.302, 419.921, 417.751, 416.764, 416.981, 418.317, 420.635, 423.808, 427.692, 432.197, 437.299, 442.978, 449.216, 456.004, 463.334, 471.19, 479.563, 488.454, 497.869, 507.829, 518.36, 529.521, 541.39, 554.074, 567.693, 582.329, 598.023, 614.765, 632.492, 651.106, 670.473, 690.473, 711.0, 731.955, 753.256, 774.822, 796.572, 818.415, 840.251, 861.955, 883.374, 904.38, 924.866, 944.766, 964.058, 982.751, 1000.886, 1018.495, 1035.6, 1052.206, 1068.302, 1083.865, 1098.868, 1113.278, 1127.061, 1140.2, 1152.698, 1164.557, 1175.774, 1186.333, 1196.2, 1205.327, 1213.656, 1221.135, 1227.716, 1233.361, 1238.049, 1241.766, 1244.509, 1246.286, 1247.112, 1247.002, 1245.964, 1244.011, 1241.152, 1237.407, 1232.798, 1227.355, 1221.111, 1214.103, 1206.37, 1197.952, 1188.889, 1179.222, 1168.988, 1158.225, 1146.97, 1135.26, 1123.136, 1110.638, 1097.808, 1084.691, 1071.327, 1057.76, 1044.032, 1030.183, 1016.253, 1002.277, 988.291, 974.326, 960.413, 946.58, 932.855, 919.26, 905.817, 892.546, 879.463, 866.584, 853.92, 841.482, 829.279, 817.318, 805.601, 794.134, 782.918, 771.952, 761.237, 750.769, 740.546, 730.562, 720.814, 711.294, 701.995, 692.909, 684.029, 675.345, 666.849, 658.533, 650.388, 642.407, 634.582, 626.908, 619.378, 611.987, 604.732, 597.609, 590.615, 583.75, 577.014, 570.406, 563.93, 557.586, 551.378, 545.309, 539.384, 533.605, 527.976, 522.502, 517.187, 512.034, 507.047, 502.229, 497.585, 493.117, 488.827, 484.718, 480.789, 477.043, 473.477, 470.09, 466.88, 463.842, 460.972, 458.265, 455.713, 453.308, 451.043, 448.906, 446.886, 444.971, 443.148, 441.402, 439.717, 438.078, 436.469, 434.873, 433.273, 431.652, 429.993, 428.28, 426.495, 424.624, 422.648, 420.553, 418.324, 415.945, 413.404, 410.686, 407.781, 404.678, 401.368, 397.841, 394.09, 390.111, 385.896, 381.444, 376.751, 371.815, 366.638, 361.22, 355.563, 349.673, 343.553, 337.21, 330.651, 323.884, 316.917, 309.76, 302.422, 294.915, 287.248, 279.432, 271.48, 263.404, 255.215, 246.927, 238.552, 230.103, 221.593, 213.034, 204.439, 195.819, 187.188, 178.556, 169.935, 161.335, 152.767, 144.241, 135.766, 127.351, 119.004, 110.734, 102.546, 94.447, 86.443, 78.539, 70.74, 63.05, 55.473, 48.012, 40.672, 33.454, 26.361, 19.394, 12.556, 5.847, -0.733, -7.184, -13.508, -19.706, -25.779, -31.731, -37.564, -43.281, -48.886, -54.384, -59.779, -65.075, -70.277, -75.392, -80.424, -85.379, -90.261, -95.078, -99.834, -104.535, -109.187, -113.796, -118.368, -122.909, -127.425, -131.923, -136.409, -140.89, -145.374, -149.865, -154.371, -158.897, -163.449, -168.032, -172.65, -177.306, -182.004, -186.745, -191.533, -196.366, -201.247, -206.172, -211.143, -216.156, -221.209, -226.298, -231.42, -236.57, -241.741, -246.93, -252.128, -257.328, -262.521, -267.7, -272.855, -277.974, -283.048, -288.063, -293.006, -297.863, -302.622, -307.265, -311.779, -316.148, -320.355, -324.387, -328.229, -331.865, -335.283, -338.469, -341.411, -344.097, -346.516, -348.66, -350.52, -352.088, -353.36, -354.33, -354.997, -355.357, -355.412, -355.162, -354.615, -353.778, -352.659, -351.271, -349.628, -347.747, -345.644, -343.341, -340.854, -338.203, -335.408, -332.491, -329.476, -326.39, -323.26, -320.112, -316.972, -313.867, -310.821, -307.859, -304.997, -302.249, -299.632, -297.168, -294.888, -292.83, -291.023, -289.495, -288.269, -287.358, -286.768, -286.496, -286.514, -286.791, -287.291, -287.981, -288.839, -289.843, -290.96, -292.138, -293.305, -294.382, -295.303, -296.007, -296.445, -296.606, -296.508, -296.219, -295.855, -295.519, -295.322, -295.391, -295.871, -296.919, -298.684, -301.275, -304.861, -309.732, -316.125, -324.117, -333.478, -343.615, -353.887, -363.749, -372.515, -379.292, -383.314, -384.259, -382.824, -380.665, -379.405, -380.543, -385.649, -396.195, -413.4, -435.821, -458.234, -474.944, -481.969, -480.304, -474.075, -461.876, -434.051, -375.197, -273.5, -128.521, 46.385, 232.417, 418.162, 593.116, 748.601, 872.016, 937.874, 930.823, 847.851, 697.063, 505.152, 295.788, 87.592, -99.639, -255.797, -374.901, -456.038, -510.025, -547.302, -573.606, -589.982, -590.392, -571.774, -537.412, -493.585, -448.979, -409.144, -375.778, -350.211, -333.162, -324.639, -324.251, -330.363, -340.307, -352.153, -364.417, -375.176, -382.922, -386.869, -386.657, -382.757, -376.368, -368.424, -359.9, -352.169, -346.147, -342.25, -340.682, -341.164, -343.167, -346.286, -349.955, -353.44, -356.296, -358.275, -359.24, -359.278, -358.456, -356.758, -354.259, -351.052, -347.183, -342.749, -337.824, -332.426, -326.64, -320.56, -314.283, -307.936, -301.602, -295.31, -289.087, -282.942, -276.874, -270.902, -265.027, -259.24, -253.546, -247.93, -242.376, -236.882, -231.429, -225.994, -220.56, -215.096, -209.579, -204.008, -198.382, -192.702, -186.975, -181.2, -175.381, -169.527, -163.644, -157.736, -151.812, -145.878, -139.939, -134.009, -128.099, -122.223, -116.399, -110.642, -104.969, -99.399, -93.952, -88.647, -83.507, -78.551, -73.802, -69.28, -65.009, -61.009, -57.302, -53.91, -50.853, -48.151, -45.823, -43.887, -42.357, -41.249, -40.574, -40.341, -40.56, -41.234, -42.368, -43.963, -46.019, -48.532, -51.497, -54.908, -58.753, -63.02, -67.695, -72.759, -78.192, -83.973, -90.077, -96.479, -103.154, -110.073, -117.209, -124.534, -132.016, -139.628, -147.338, -155.116, -162.931, -170.754, -178.554, -186.303, -193.974, -201.539, -208.973, -216.254, -223.359, -230.267, -236.96, -243.42, -249.632, -255.58, -261.253, -266.64, -271.732, -276.522, -281.006, -285.18, -289.045, -292.6, -295.847, -298.79, -301.433, -303.781, -305.839, -307.616, -309.117, -310.352, -311.329, -312.057, -312.547, -312.808, -312.85, -312.684, -312.318, -311.761, -311.021, -310.107, -309.025, -307.782, -306.384, -304.836, -303.144, -301.313, -299.347, -297.248, -295.021, -292.666, -290.185, -287.579, -284.846, -281.988, -279.001, -275.886, -272.641, -269.265, -265.757, -262.116, -258.341, -254.43, -250.383, -246.2, -241.878, -237.419, -232.823, -228.091, -223.225, -218.228, -213.104, -207.858, -202.495, -197.022, -191.446, -185.774, -180.015, -174.176, -168.267, -162.298, -156.28, -150.224, -144.141, -138.044, -131.946, -125.859, -119.797, -113.773, -107.8, -101.89, -96.057, -90.312, -84.668, -79.138, -73.732, -68.463, -63.342, -58.379, -53.584, -48.964, -44.527, -40.28, -36.226, -32.371, -28.717, -25.265, -22.016, -18.97, -16.125, -13.479, -11.029, -8.77, -6.696, -4.802, -3.079, -1.518, -0.111, 1.152, 2.282, 3.29, 4.187, 4.985, 5.695, 6.33, 6.902, 7.425, 7.911, 8.373, 8.826, 9.28, 9.75, 10.247, 10.781, 11.363, 12.004, 12.711, 13.492, 14.354, 15.304, 16.348, 17.489, 18.73, 20.075, 21.524, 23.078, 24.735, 26.493, 28.349, 30.298, 32.336, 34.458, 36.658, 38.929, 41.265, 43.657, 46.098, 48.579, 51.091, 53.625, 56.171, 58.718, 61.256, 63.777, 66.27, 68.726, 71.138, 73.497, 75.796, 78.03, 80.194, 82.281, 84.288, 86.211, 88.05, 89.801, 91.467, 93.049, 94.548, 95.969, 97.318, 98.6, 99.822, 100.992, 102.118, 103.207, 104.268, 105.312, 106.348, 107.386, 108.436, 109.51, 110.619, 111.774, 112.986, 114.264, 115.619, 117.06, 118.593, 120.225, 121.957, 123.791, 125.729, 127.768, 129.906, 132.14, 134.464, 136.874, 139.365, 141.935, 144.575, 147.279, 150.037, 152.834, 155.659, 158.499, 161.34, 164.169, 166.972, 169.738, 172.464, 175.144, 177.772, 180.332, 182.799, 185.144, 187.35, 189.397, 191.272, 192.972, 194.5, 195.875, 197.141, 198.342, 199.525, 200.729, 201.977, 203.3, 204.733, 206.325, 208.144, 210.252, 212.694, 215.511, 218.729, 222.329, 226.27, 230.453, 234.73, 238.973, 243.038, 246.762, 250.014, 252.655, 254.534, 255.52, 255.412, 253.911, 250.866, 246.312, 240.418, 233.604, 226.445, 219.536, 213.708, 210.018, 209.168, 211.208, 215.777, 222.096, 228.636, 233.669, 235.764, 232.948, 225.544, 217.374, 209.895, 203.791, 198.837, 190.507, 184.111, 193.999, 233.367, 317.313, 445.684, 601.692, 769.098, 929.316, 1071.23, 1194.155, 1293.862, 1365.83, 1405.624, 1406.32, 1365.804, 1286.688, 1173.78, 1035.358, 881.195, 720.536, 562.0, 413.935, 283.541, 176.173, 95.476, 42.328, 14.926, 10.418, 25.323, 54.761, 93.207, 135.143, 175.009, 208.836, 234.652, 251.205, 258.136, 256.412, 247.811, 234.886, 220.986, 208.849, 200.037, 195.69, 196.246, 201.482, 210.857, 223.245, 236.924, 250.225, 262.056, 271.689, 278.811, 283.463, 285.78, 286.089, 284.968, 283.115, 281.024, 278.993, 277.167, 275.488, 273.877, 272.291, 270.642, 268.841, 266.866, 264.734, 262.499, 260.243, 257.999, 255.761, 253.513, 251.206, 248.79, 246.244, 243.55, 240.736, 237.882, 235.051, 232.299, 229.662, 227.14, 224.71, 222.331, 219.963, 217.577, 215.162, 212.731, 210.306, 207.92, 205.606, 203.395, 201.296, 199.299, 197.388, 195.545, 193.769, 192.075, 190.497, 189.084, 187.879, 186.913, 186.212, 185.782, 185.611, 185.672, 185.911, 186.261, 186.676, 187.123, 187.581, 188.051, 188.525, 188.987, 189.43, 189.827, 190.15, 190.38, 190.479, 190.413, 190.18, 189.807, 189.358, 188.922, 188.55, 188.264, 188.075, 187.96, 187.886, 187.8, 187.605, 187.207, 186.525, 185.483, 184.036, 182.145, 179.718, 176.624, 172.69, 167.728, 161.6, 154.205, 145.449, 135.261, 123.615, 110.544, 96.164, 80.623, 64.059, 46.601, 28.359, 9.463, -9.895, -29.47, -48.982, -68.153, -86.746, -104.545, -121.33, -136.872, -150.999, -163.616, -174.714, -184.329, -192.496, -199.24, -204.591, -208.624, -211.465, -213.288, -214.293, -214.652, -214.516, -214.033, -213.364, -212.687, -212.15, -211.834, -211.773, -211.974, -212.443, -213.202, -214.261, -215.585, -217.117, -218.771, -220.453, -222.106, -223.685, -225.147, -226.446, -227.527, -228.352, -228.92, -229.252, -229.373, -229.305, -229.059, -228.649, -228.118, -227.519, -226.918, -226.383, -225.958, -225.678, -225.578, -225.69, -226.046, -226.665, -227.549, -228.687, -230.069, -231.694, -233.573, -235.717, -238.138, -240.819, -243.721, -246.805, -250.02, -253.351, -256.827, -260.447, -264.2, -268.079, -272.037, -276.101, -280.419, -284.935, -289.434, -293.724, -297.536, -300.876, -304.152, -307.513, -310.812, -314.269, -318.296, -323.375, -330.3, -339.074, -348.724, -358.725, -368.934, -378.887, -388.131, -395.976, -401.193, -403.672, -404.552, -404.518, -403.973, -403.389, -402.929, -403.091, -404.921, -408.542, -413.141, -418.182, -423.218, -427.944, -432.454, -436.575, -439.795, -442.036, -443.591, -444.674, -445.53, -446.256, -446.707, -446.859, -446.802, -446.55, -446.083, -445.375, -444.368, -443.056, -441.501, -439.741, -437.806, -435.713, -433.456, -431.038, -428.47, -425.766, -422.938, -419.999, -416.959, -413.828, -410.613, -407.325, -403.974, -400.567, -397.111, -393.61, -390.067, -386.49, -382.892, -379.284, -375.677, -372.077, -368.492, -364.925, -361.384, -357.873, -354.396, -350.955, -347.552, -344.189, -340.869, -337.592, -334.361, -331.173, -328.029, -324.927, -321.864, -318.837, -315.845, -312.883, -309.95, -307.043, -304.158, -301.293, -298.446, -295.615, -292.798, -289.994, -287.199, -284.413, -281.632, -278.855, -276.08, -273.305, -270.527, -267.745, -264.956, -262.159, -259.352, -256.533, -253.699, -250.848, -247.976, -245.082, -242.163, -239.215, -236.237, -233.225, -230.177, -227.092, -223.968, -220.803, -217.596, -214.344, -211.045, -207.697, -204.297, -200.844, -197.333, -193.762, -190.128, -186.427, -182.658, -178.818, -174.905, -170.92, -166.867, -162.75, -158.572, -154.339, -150.058, -145.737, -141.383, -137.0, -132.592, -128.162, -123.714, -119.255, -114.794, -110.338, -105.89, -101.456, -97.036, -92.637, -88.262, -83.907, -79.564, -75.23, -70.907, -66.614, -62.383, -58.239, -54.201, -50.278, -46.479, -42.811, -39.278, -35.858, -32.509, -29.183, -25.836, -22.436, -18.966, -15.388, -11.643, -7.649, -3.305, 1.473, 6.728, 12.482, 18.752, 25.524, 32.776, 40.457, 48.417, 56.47, 64.444, 72.172, 79.499, 86.281, 92.259, 97.006, 100.262, 101.999, 102.381, 101.892, 101.078, 100.369, 100.421, 102.178, 106.152, 112.222, 119.752, 127.313, 132.927, 134.712, 131.096, 120.395, 103.606, 85.006, 66.724, 50.874, 38.282, 25.478, 18.88, 32.406, 78.348, 171.024, 309.186, 475.117, 651.859, 819.772, 966.603, 1091.442, 1190.299, 1258.877, 1292.961, 1286.006, 1236.423, 1147.911, 1026.884, 882.292, 724.097, 561.97, 405.342, 263.602, 144.498, 53.17, -8.138, -39.847, -44.372, -25.642, 11.065, 58.911, 110.711, 159.831, 201.283, 232.225, 251.006, 257.284, 252.148, 238.035, 218.387, 197.227, 177.916, 162.405, 152.049, 147.421, 148.262, 153.824, 162.685, 172.824, 182.394, 190.279, 195.748, 198.548, 198.819, 196.753, 192.788, 187.635, 182.027, 176.516, 171.476, 167.063, 163.282, 160.157, 157.684, 155.83, 154.534, 153.722, 153.338, 153.353, 153.749, 154.5, 155.558, 156.847, 158.277, 159.758, 161.205, 162.566, 163.808, 164.905, 165.842, 166.612, 167.211, 167.658, 167.982, 168.202, 168.337, 168.403, 168.417, 168.408, 168.411, 168.454, 168.562, 168.757, 169.054, 169.468, 170.014, 170.702, 171.538, 172.525, 173.662, 174.952, 176.396, 177.995, 179.748, 181.652, 183.698, 185.88, 188.19, 190.615, 193.141, 195.752, 198.427, 201.148, 203.893, 206.641, 209.366, 212.044, 214.65, 217.158, 219.542, 221.774, 223.828, 225.678, 227.297, 228.662, 229.748, 230.534, 230.998, 231.121, 230.886, 230.279, 229.286, 227.896, 226.101, 223.894, 221.272, 218.233, 214.78, 210.915, 206.647, 201.984, 196.938, 191.525, 185.76, 179.662, 173.253, 166.554, 159.589, 152.385, 144.967, 137.365, 129.606, 121.72, 113.736, 105.684, 97.594, 89.493, 81.41, 73.371, 65.403, 57.53, 49.776, 42.161, 34.708, 27.433, 20.354, 13.486, 6.841, 0.43, -5.739, -11.661, -17.331, -22.747, -27.909, -32.82, -37.484, -41.905, -46.091, -50.051, -53.796, -57.338, -60.691, -63.871, -66.894, -69.777, -72.537, -75.192, -77.762, -80.263, -82.713, -85.131, -87.532, -89.935, -92.354, -94.805, -97.304, -99.863, -102.496, -105.214, -108.028, -110.945, -113.974, -117.121, -120.39, -123.787, -127.313, -130.972, -134.763, -138.688, -142.745, -146.931, -151.242, -155.675, -160.222, -164.877, -169.631, -174.475, -179.401, -184.4, -189.46, -194.574, -199.73, -204.919, -210.131, -215.356, -220.584, -225.806, -231.011, -236.19, -241.335, -246.437, -251.489, -256.482, -261.411, -266.269, -271.049, -275.744, -280.349, -284.858, -289.263, -293.559, -297.741, -301.802, -305.74, -309.549, -313.225, -316.767, -320.171, -323.435, -326.556, -329.532, -332.361, -335.041, -337.569, -339.943, -342.163, -344.225, -346.13, -347.876, -349.461, -350.885, -352.146, -353.244, -354.178, -354.946, -355.548, -355.984, -356.254, -356.36, -356.303, -356.087, -355.714, -355.188, -354.513, -353.694, -352.735, -351.641, -350.416, -349.066, -347.595, -346.01, -344.315, -342.517, -340.622, -338.636, -336.566, -334.417, -332.197, -329.91, -327.563, -325.162, -322.713, -320.22, -317.691, -315.13, -312.542, -309.932, -307.305, -304.664, -302.012, -299.35, -296.68, -294.001, -291.312, -288.612, -285.899, -283.172, -280.426, -277.66, -274.869, -272.051, -269.202, -266.319, -263.396, -260.43, -257.417, -254.353, -251.234, -248.056, -244.816, -241.511, -238.138, -234.693, -231.174, -227.579, -223.904, -220.149, -216.312, -212.391, -208.386, -204.299, -200.131, -195.884, -191.561, -187.168, -182.708, -178.188, -173.613, -168.988, -164.322, -159.619, -154.887, -150.133, -145.363, -140.584, -135.802, -131.023, -126.253, -121.498, -116.76, -112.046, -107.358, -102.702, -98.08, -93.498, -88.957, -84.461, -80.016, -75.624, -71.289, -67.013, -62.797, -58.645, -54.558, -50.537, -46.583, -42.696, -38.877, -35.128, -31.456, -27.863, -24.355, -20.936, -17.61, -14.382, -11.263, -8.259, -5.375, -2.616, 0.015, 2.509, 4.856, 7.044, 9.068, 10.924, 12.612, 14.131, 15.474, 16.638, 17.628, 18.452, 19.117, 19.626, 19.962, 20.106, 20.05, 19.787, 19.321, 18.66, 17.805, 16.764, 15.567, 14.248, 12.844, 11.401, 9.944, 8.495, 7.083, 5.726, 4.468, 3.382, 2.544, 2.031, 1.888, 2.107, 2.629, 3.437, 4.546, 5.862, 7.151, 8.016, 8.056, 7.089, 5.219, 2.512, -1.32, -6.362, -12.288, -18.226, -22.806, -25.064, -24.912, -22.443, -17.212, -9.227, 0.847, 11.547, 19.652, 22.005, 17.043, 3.639, -17.456, -42.625, -68.754, -93.575, -117.925, -145.321, -174.071, -194.009, -184.659, -125.085, -7.909, 158.056, 347.246, 531.923, 695.561, 831.421, 940.928, 1024.523, 1077.077, 1092.044, 1066.267, 1003.466, 910.721, 795.442, 660.157, 503.75, 331.812, 157.292, 2.866, -105.359, -156.578, -154.184, -115.747, -69.251, -31.212, -9.295, -4.372, -5.405, -6.506, -5.033, 2.373, 10.836, 17.592, 23.061, 26.571, 31.26, 38.994, 48.188, 57.287, 64.516, 68.987, 71.412, 72.131, 70.875, 67.753, 63.41, 58.995, 55.492, 52.987, 50.788, 48.37, 45.671, 42.794, 39.854, 36.698, 33.124, 29.281, 25.633, 22.578, 20.317, 18.867, 18.094, 17.933, 18.382, 19.37, 20.78, 22.481, 24.347, 26.294, 28.279, 30.243, 32.131, 33.901, 35.508, 36.931, 38.167, 39.225, 40.13, 40.92, 41.623, 42.259, 42.848, 43.405, 43.954, 44.521, 45.127, 45.792, 46.536, 47.377, 48.339, 49.443, 50.704, 52.132, 53.731, 55.506, 57.463, 59.609, 61.95, 64.491, 67.234, 70.18, 73.329, 76.679, 80.226, 83.959, 87.865, 91.928, 96.131, 100.456, 104.88, 109.38, 113.93, 118.504, 123.071, 127.603, 132.068, 136.434, 140.668, 144.737, 148.609, 152.252, 155.635, 158.725, 161.494, 163.913, 165.956, 167.598, 168.816, 169.589, 169.899, 169.73, 169.07, 167.907, 166.235, 164.049, 161.348, 158.135, 154.414, 150.196, 145.492, 140.318, 134.692, 128.636, 122.175, 115.335, 108.145, 100.638, 92.847, 84.806, 76.552, 68.121, 59.551, 50.879, 42.143, 33.382, 24.632, 15.929, 7.311, -1.19, -9.539, -17.705, -25.657, -33.367, -40.807, -47.954, -54.784, -61.276, -67.411, -73.174, -78.551, -83.529, -88.102, -92.261, -96.005, -99.331, -102.241, -104.739, -106.831, -108.523, -109.826, -110.751, -111.309, -111.514, -111.379, -110.922, -110.155, -109.096, -107.761, -106.167, -104.328, -102.262, -99.986, -97.514, -94.862, -92.046, -89.082, -85.984, -82.766, -79.442, -76.027, -72.533, -68.972, -65.356, -61.695, -57.999, -54.277, -50.537, -46.787, -43.033, -39.282, -35.539, -31.809, -28.098, -24.409, -20.749, -17.121, -13.531, -9.984, -6.486, -3.043, 0.34, 3.655, 6.896, 10.055, 13.125, 16.1, 18.971, 21.733, 24.378, 26.899, 29.291, 31.546, 33.658, 35.622, 37.431, 39.08, 40.564, 41.876, 43.012, 43.968, 44.74, 45.323, 45.714, 45.912, 45.913, 45.718, 45.326, 44.739, 43.958, 42.987, 41.832, 40.497, 38.992, 37.325, 35.504, 33.542, 31.449, 29.237, 26.919, 24.508, 22.018, 19.462, 16.856, 14.212, 11.547, 8.875, 6.212, 3.571, 0.97, -1.578, -4.058, -6.455, -8.754, -10.942, -13.004, -14.927, -16.698, -18.305, -19.737, -20.984, -22.037, -22.889, -23.533, -23.966, -24.183, -24.183, -23.966, -23.532, -22.883, -22.021, -20.952, -19.679, -18.208, -16.546, -14.701, -12.681, -10.494, -8.152, -5.663, -3.039, -0.291, 2.57, 5.531, 8.579, 11.702, 14.887, 18.118, 21.382, 24.664, 27.951, 31.227, 34.479, 37.694, 40.858, 43.96, 46.988, 49.932, 52.781, 55.526, 58.16, 60.674, 63.063, 65.321, 67.443, 69.425, 71.265, 72.959, 74.507, 75.909, 77.163, 78.271, 79.232, 80.05, 80.726, 81.264, 81.668, 81.942, 82.093, 82.128, 82.054, 81.88, 81.616, 81.271, 80.855, 80.38, 79.856, 79.294, 78.708, 78.108, 77.507, 76.917, 76.349, 75.816, 75.328, 74.896, 74.528, 74.234, 74.022, 73.9, 73.875, 73.954, 74.144, 74.453, 74.884, 75.442, 76.131, 76.953, 77.908, 78.993, 80.204, 81.532, 82.972, 84.514, 86.149, 87.864, 89.643, 91.47, 93.33, 95.206, 97.083, 98.942, 100.761, 102.522, 104.209, 105.81, 107.314, 108.711, 109.986, 111.124, 112.12, 112.975, 113.688, 114.256, 114.665, 114.899, 114.946, 114.802, 114.464, 113.93, 113.197, 112.262, 111.144, 109.87, 108.479, 107.019, 105.518, 103.996, 102.465, 100.931, 99.424, 98.01, 96.753, 95.719, 94.969, 94.494, 94.305, 94.462, 94.9, 95.446, 95.806, 95.468, 94.006, 91.336, 87.448, 82.287, 76.035, 68.961, 61.677, 55.534, 51.808, 51.095, 53.655, 59.433, 67.989, 78.904, 91.023, 101.897, 109.107, 110.44, 104.043, 89.478, 66.553, 36.812, 5.176, -24.928, -50.979, -72.321, -92.35, -105.301, -97.926, -56.951, 30.669, 159.679, 311.836, 472.428, 630.473, 787.915, 948.962, 1102.249, 1224.497, 1289.433, 1281.119, 1206.769, 1093.109, 965.157, 836.753, 708.374, 567.883, 414.723, 263.118, 130.827, 39.423, -6.709, -20.569, -14.555, -2.941, 8.732, 24.403, 43.075, 63.058, 82.364, 96.057, 102.558, 102.638, 96.538, 86.5, 76.023, 67.504, 62.397, 61.387, 64.059, 69.837, 78.701, 89.879, 101.631, 112.554, 121.714, 128.634, 133.502, 136.491, 137.429, 136.488, 134.243, 131.193, 127.79, 124.337, 120.904, 117.642, 114.845, 112.697, 111.278, 110.63, 110.729, 111.567, 113.173, 115.522, 118.548, 122.175, 126.314, 130.888, 135.831, 141.061, 146.483, 152.0, 157.515, 162.955, 168.271, 173.425, 178.397, 183.173, 187.754, 192.152, 196.385, 200.468, 204.414, 208.233, 211.931, 215.519, 219.006, 222.404, 225.722, 228.968, 232.145, 235.255, 238.3, 241.276, 244.181, 247.008, 249.75, 252.404, 254.966, 257.433, 259.806, 262.083, 264.261, 266.341, 268.321, 270.197, 271.967, 273.625, 275.167, 276.586, 277.878, 279.035, 280.051, 280.921, 281.636, 282.19, 282.576, 282.786, 282.814, 282.652, 282.295, 281.737, 280.972, 279.996, 278.805, 277.396, 275.766, 273.913, 271.836, 269.534, 267.007, 264.257, 261.284, 258.09, 254.679, 251.052, 247.216, 243.173, 238.931, 234.496, 229.875, 225.076, 220.107, 214.979, 209.7, 204.282, 198.734, 193.068, 187.296, 181.428, 175.477, 169.455, 163.374, 157.245, 151.079, 144.889, 138.684, 132.477, 126.276, 120.093, 113.935, 107.812, 101.733, 95.704, 89.735, 83.832, 78.001, 72.248, 66.581, 61.003, 55.521, 50.137, 44.857, 39.684, 34.621, 29.67, 24.835, 20.116, 15.516, 11.036, 6.677, 2.44, -1.675, -5.667, -9.537, -13.283, -16.907, -20.409, -23.788, -27.046, -30.181, -33.195, -36.086, -38.856, -41.503, -44.027, -46.429, -48.707, -50.862, -52.893, -54.801, -56.584, -58.244, -59.779, -61.189, -62.475, -63.636, -64.673, -65.585, -66.374, -67.04, -67.584, -68.009, -68.314, -68.503, -68.577, -68.54, -68.392, -68.139, -67.782, -67.325, -66.774, -66.132, -65.405, -64.597, -63.716, -62.767, -61.757, -60.693, -59.581, -58.428, -57.243, -56.032, -54.805, -53.569, -52.332, -51.104, -49.894, -48.709, -47.559, -46.454, -45.4, -44.407, -43.482, -42.634, -41.871, -41.199, -40.626, -40.158, -39.803, -39.566, -39.452, -39.467, -39.614, -39.897, -40.319, -40.882, -41.587, -42.435, -43.427, -44.563, -45.84, -47.258, -48.815, -50.506, -52.327, -54.274, -56.341, -58.521, -60.806, -63.189, -65.66, -68.211, -70.832, -73.513, -76.242, -79.009, -81.801, -84.607, -87.413, -90.209, -92.979, -95.713, -98.398, -101.02, -103.568, -106.03, -108.395, -110.651, -112.789, -114.799, -116.67, -118.395, -119.965, -121.373, -122.613, -123.681, -124.572, -125.284, -125.815, -126.166, -126.338, -126.334, -126.156, -125.811, -125.304, -124.643, -123.837, -122.896, -121.832, -120.659, -119.389, -118.038, -116.623, -115.159, -113.664, -112.157, -110.656, -109.178, -107.744, -106.373, -105.082, -103.893, -102.823, -101.892, -101.118, -100.518, -100.111, -99.911, -99.935, -100.195, -100.706, -101.479, -102.524, -103.851, -105.467, -107.378, -109.59, -112.104, -114.923, -118.046, -121.47, -125.19, -129.201, -133.495, -138.061, -142.89, -147.968, -153.282, -158.817, -164.559, -170.489, -176.591, -182.846, -189.235, -195.739, -202.336, -209.007, -215.73, -222.485, -229.25, -236.006, -242.732, -249.408, -256.015, -262.535, -268.948, -275.237, -281.386, -287.378, -293.198, -298.833, -304.271, -309.501, -314.514, -319.304, -323.864, -328.191, -332.281, -336.135, -339.751, -343.131, -346.279, -349.197, -351.891, -354.367, -356.633, -358.697, -360.569, -362.262, -363.79, -365.168, -366.413, -367.542, -368.572, -369.521, -370.407, -371.248, -372.058, -372.849, -373.636, -374.433, -375.257, -376.124, -377.046, -378.034, -379.097, -380.242, -381.476, -382.8, -384.207, -385.693, -387.254, -388.896, -390.639, -392.498, -394.483, -396.6, -398.847, -401.215, -403.696, -406.264, -408.875, -411.485, -414.047, -416.52, -418.882, -421.101, -423.129, -424.899, -426.325, -427.323, -427.832, -427.81, -427.232, -426.098, -424.431, -422.287, -419.759, -416.964, -414.032, -411.106, -408.341, -405.903, -403.96, -402.754, -402.618, -403.774, -406.263, -409.875, -414.073, -418.232, -421.815, -424.161, -424.465, -422.246, -417.549, -411.19, -404.914, -400.675, -400.073, -404.497, -415.106, -432.177, -454.751, -480.173, -503.983, -520.847, -525.523, -513.136, -479.229, -420.653, -336.331, -227.858, -99.606, 41.685, 187.951, 330.513, 459.728, 565.992, 641.247, 679.624, 679.374, 643.491, 576.358, 481.871, 360.799, 212.055, 39.983, -141.712, -308.876, -436.596, -511.561, -537.578, -534.479, -523.3, -516.3, -515.172, -512.928, -505.18, -493.101, -480.061, -470.66, -466.292, -465.17, -465.305, -464.51, -460.934, -453.334, -441.044, -424.163, -403.443, -380.047, -355.109, -329.551, -304.318, -280.335, -258.18, -238.19, -220.512, -205.071, -191.834, -180.785, -171.776, -164.629, -159.187, -155.249, -152.629, -151.13, -150.47, -150.418, -150.8, -151.444, -152.219, -152.969, -153.486, -153.61, -153.212, -152.194, -150.522, -148.173, -145.133, -141.442, -137.17, -132.412, -127.302, -121.935, -116.372, -110.686, -104.942, -99.228, -93.67, -88.356, -83.349, -78.7, -74.433, -70.566, -67.115, -64.065, -61.374, -58.998, -56.879, -54.971, -53.246, -51.662, -50.174, -48.727, -47.252, -45.7, -44.036, -42.226, -40.246, -38.076, -35.698, -33.108, -30.315, -27.327, -24.153, -20.799, -17.27, -13.578, -9.739, -5.772, -1.699, 2.458, 6.68, 10.943, 15.224, 19.499, 23.741, 27.928, 32.036, 36.04, 39.913, 43.624, 47.146, 50.447, 53.502, 56.281, 58.757, 60.905, 62.7, 64.123, 65.153, 65.773, 65.968, 65.726, 65.036, 63.89, 62.285, 60.217, 57.689, 54.703, 51.268, 47.391, 43.086, 38.365, 33.247, 27.75, 21.895, 15.707, 9.212, 2.437, -4.587, -11.829, -19.257, -26.836, -34.531, -42.309, -50.132, -57.965, -65.774, -73.521, -81.173, -88.696, -96.058, -103.228, -110.177, -116.876, -123.3, -129.426, -135.232, -140.699, -145.81, -150.549, -154.904, -158.866, -162.424, -165.576, -168.316, -170.646, -172.566, -174.082, -175.201, -175.931, -176.284, -176.273, -175.914, -175.222, -174.215, -172.915, -171.34, -169.513, -167.458, -165.196, -162.751, -160.148, -157.41, -154.559, -151.619, -148.61, -145.555, -142.472, -139.381, -136.301, -133.247, -130.237, -127.284, -124.403, -121.604, -118.899, -116.296, -113.802, -111.423, -109.162, -107.021, -105.002, -103.104, -101.325, -99.661, -98.109, -96.662, -95.313, -94.055, -92.879, -91.775, -90.733, -89.745, -88.798, -87.883, -86.991, -86.11, -85.234, -84.351, -83.455, -82.536, -81.587, -80.601, -79.572, -78.492, -77.357, -76.162, -74.903, -73.578, -72.182, -70.716, -69.179, -67.569, -65.888, -64.138, -62.319, -60.435, -58.49, -56.486, -54.429, -52.323, -50.174, -47.988, -45.769, -43.523, -41.255, -38.971, -36.674, -34.37, -32.062, -29.754, -27.45, -25.153, -22.867, -20.594, -18.338, -16.101, -13.885, -11.693, -9.527, -7.389, -5.28, -3.204, -1.161, 0.847, 2.819, 4.752, 6.645, 8.498, 10.309, 12.077, 13.801, 15.48, 17.114, 18.7, 20.237, 21.723, 23.155, 24.532, 25.851, 27.108, 28.301, 29.427, 30.482, 31.463, 32.368, 33.194, 33.938, 34.598, 35.172, 35.66, 36.059, 36.37, 36.594, 36.731, 36.783, 36.754, 36.645, 36.46, 36.204, 35.882, 35.498, 35.058, 34.57, 34.04, 33.476, 32.888, 32.284, 31.674, 31.07, 30.48, 29.918, 29.394, 28.919, 28.505, 28.163, 27.906, 27.743, 27.686, 27.744, 27.928, 28.246, 28.705, 29.313, 30.074, 30.993, 32.074, 33.318, 34.726, 36.298, 38.032, 39.926, 41.976, 44.176, 46.521, 49.002, 51.612, 54.339, 57.173, 60.102, 63.112, 66.191, 69.323, 72.493, 75.687, 78.889, 82.082, 85.252, 88.381, 91.455, 94.458, 97.375, 100.193, 102.898, 105.479, 107.925, 110.227, 112.376, 114.366, 116.193, 117.851, 119.339, 120.656, 121.803, 122.781, 123.596, 124.252, 124.756, 125.117, 125.345, 125.45, 125.446, 125.344, 125.161, 124.91, 124.607, 124.27, 123.914, 123.557, 123.217, 122.912, 122.66, 122.478, 122.383, 122.393, 122.524, 122.79, 123.206, 123.786, 124.541, 125.483, 126.621, 127.962, 129.514, 131.282, 133.268, 135.475, 137.902, 140.55, 143.416, 146.495, 149.784, 153.277, 156.965, 160.84, 164.894, 169.117, 173.496, 178.022, 182.681, 187.459, 192.344, 197.322, 202.377, 207.495, 212.659, 217.854, 223.065, 228.273, 233.463, 238.618, 243.723, 248.761, 253.719, 258.583, 263.339, 267.973, 272.476, 276.835, 281.038, 285.072, 288.923, 292.576, 296.017, 299.235, 302.216, 304.948, 307.414, 309.606, 311.517, 313.142, 314.477, 315.514, 316.244, 316.665, 316.777, 316.585, 316.095, 315.313, 314.243, 312.895, 311.285, 309.431, 307.352, 305.053, 302.523, 299.753, 296.743, 293.499, 290.033, 286.354, 282.469, 278.401, 274.191, 269.897, 265.582, 261.307, 257.126, 253.086, 249.237, 245.65, 242.404, 239.605, 237.356, 235.716, 234.728, 234.409, 234.726, 235.694, 237.347, 239.492, 241.773, 243.827, 245.231, 245.841, 245.767, 244.754, 242.372, 238.705, 234.335, 230.289, 227.907, 227.678, 229.318, 233.105, 239.427, 247.895, 257.173, 264.628, 267.013, 262.445, 250.445, 230.569, 202.997, 169.227, 132.628, 98.892, 74.583, 65.914, 78.28, 115.8, 181.751, 275.794, 392.165, 525.895, 672.293, 827.463, 991.759, 1154.859, 1296.948, 1399.686, 1443.437, 1425.192, 1359.686, 1261.248, 1147.255, 1027.301, 899.897, 767.718, 633.987, 504.008, 387.653, 290.958, 216.266, 163.9, 131.293, 115.293, 113.601, 123.418, 141.226, 163.1, 185.139, 204.657, 220.05, 230.737, 236.442, 236.705, 231.828, 223.232, 212.829, 202.429, 193.657, 187.189, 183.25, 182.474, 185.034, 190.414, 197.824, 206.077, 213.791, 220.296, 225.307, 228.387, 229.444, 228.594, 225.984, 222.143, 217.798, 213.379, 209.192, 205.514, 202.412, 199.953, 198.236, 197.208, 196.77, 196.865, 197.417, 198.372, 199.727, 201.435, 203.431, 205.656, 208.015, 210.42, 212.795, 215.055, 217.145, 219.029, 220.679, 222.087, 223.259, 224.207, 224.955, 225.534, 225.967, 226.277, 226.488, 226.624, 226.716, 226.795, 226.891, 227.029, 227.233, 227.522, 227.916, 228.43, 229.076, 229.863, 230.797, 231.881, 233.121, 234.521, 236.086, 237.816, 239.713, 241.775, 243.998, 246.38, 248.913, 251.588, 254.391, 257.31, 260.327, 263.424, 266.581, 269.777, 272.988, 276.19, 279.356, 282.461, 285.477, 288.376, 291.132, 293.717, 296.103, 298.263, 300.173, 301.806, 303.139, 304.15, 304.818, 305.124, 305.051, 304.584, 303.708, 302.413, 300.688, 298.527, 295.923, 292.874, 289.379, 285.439, 281.059, 276.246, 271.008, 265.357, 259.307, 252.873, 246.074, 238.93, 231.461, 223.692, 215.647, 207.353, 198.836, 190.126, 181.25, 172.238, 163.119, 153.925, 144.683, 135.424, 126.177, 116.969, 107.828, 98.782, 89.855, 81.072, 72.457, 64.03, 55.813, 47.823, 40.078, 32.594, 25.382, 18.456, 11.823, 5.493, -0.53, -6.242, -11.641, -16.73, -21.509, -25.985, -30.162, -34.05, -37.659, -40.999, -44.084, -46.928, -49.545, -51.953, -54.169, -56.21, -58.096, -59.844, -61.476, -63.009, -64.463, -65.858, -67.211, -68.541, -69.864, -71.198, -72.558, -73.958, -75.413, -76.935, -78.535, -80.224, -82.01, -83.9, -85.901, -88.016, -90.249, -92.601, -95.071, -97.659, -100.362, -103.175, -106.095, -109.113, -112.224, -115.418, -118.685, -122.016, -125.399, -128.822, -132.274, -135.74, -139.21, -142.671, -146.11, -149.517, -152.879, -156.186, -159.429, -162.597, -165.684, -168.681, -171.581, -174.381, -177.076, -179.662, -182.14, -184.509, -186.771, -188.927, -190.983, -192.943, -194.814, -196.602, -198.318, -199.97, -201.57, -203.129, -204.661, -206.181, -207.703, -209.243, -210.817, -212.442, -214.135, -215.912, -217.789, -219.784, -221.912, -224.187, -226.625, -229.24, -232.044, -235.05, -238.269, -241.71, -245.381, -249.289, -253.439, -257.835, -262.479, -267.372, -272.512, -277.896, -283.522, -289.382, -295.471, -301.779, -308.297, -315.011, -321.91, -328.977, -336.197, -343.552, -351.024, -358.592, -366.238, -373.94, -381.678, -389.429, -397.172, -404.886, -412.549, -420.139, -427.636, -435.017, -442.264, -449.356, -456.276, -463.006, -469.529, -475.831, -481.898, -487.717, -493.277, -498.567, -503.58, -508.308, -512.744, -516.884, -520.725, -524.265, -527.505, -530.446, -533.09, -535.442, -537.507, -539.29, -540.8, -542.044, -543.03, -543.768, -544.268, -544.539, -544.594, -544.442, -544.096, -543.567, -542.866, -542.006, -540.997, -539.851, -538.578, -537.188, -535.69, -534.093, -532.407, -530.638, -528.795, -526.883, -524.911, -522.881, -520.801, -518.672, -516.499, -514.283, -512.028, -509.733, -507.399, -505.028, -502.619, -500.173, -497.689, -495.167, -492.605, -490.005, -487.364, -484.681, -481.956, -479.187, -476.373, -473.512, -470.603, -467.647, -464.642, -461.589, -458.487, -455.337, -452.139, -448.894, -445.605, -442.271, -438.894, -435.478, -432.024, -428.536, -425.018, -421.472, -417.903, -414.315, -410.712, -407.099, -403.48, -399.857, -396.234, -392.615, -389.002, -385.399, -381.808, -378.23, -374.669, -371.127, -367.606, -364.108, -360.633, -357.182, -353.757, -350.357, -346.982, -343.631, -340.302, -336.994, -333.705, -330.432, -327.173, -323.925, -320.683, -317.442, -314.199, -310.946, -307.679, -304.389, -301.071, -297.718, -294.323, -290.88, -287.384, -283.83, -280.212, -276.526, -272.768, -268.932, -265.016, -261.014, -256.923, -252.74, -248.464, -244.093, -239.628, -235.072, -230.429, -225.705, -220.906, -216.04, -211.113, -206.136, -201.12, -196.079, -191.028, -185.979, -180.948, -175.948, -170.995, -166.107, -161.298, -156.576, -151.949, -147.422, -143.003, -138.707, -134.541, -130.501, -126.579, -122.766, -119.058, -115.461, -111.981, -108.614, -105.355, -102.199, -99.145, -96.2, -93.361, -90.605, -87.894, -85.178, -82.422, -79.616, -76.769, -73.9, -71.008, -68.058, -65.004, -61.801, -58.403, -54.785, -50.9, -46.659, -42.101, -37.39, -32.842, -28.946, -26.151, -24.741, -24.859, -26.555, -29.567, -33.391, -37.227, -39.773, -39.682, -35.828, -27.543, -14.715, 2.066, 21.753, 42.93, 63.34, 80.273, 90.954, 93.045, 85.285, 67.696, 41.12, 7.131, -31.248, -69.795, -103.431, -126.152, -132.342, -117.961, -79.212, -14.935, 71.974, 180.05, 307.406, 451.849, 614.443, 786.316, 949.108, 1084.753, 1172.644, 1206.108, 1194.298, 1145.908, 1072.365, 978.954, 862.825, 726.432, 574.479, 414.017, 256.828, 112.788, -11.079, -108.912, -179.929, -227.398, -251.804, -252.996, -230.311, -180.657, -111.506, -38.019, 26.046, 64.892, 75.979, 69.714, 55.041, 43.333, 38.835, 36.093, 32.66, 26.924, 19.275, 14.409, 14.454, 19.037, 27.266, 37.066, 46.807, 55.683, 63.035, 68.312, 71.286, 72.095, 71.063, 68.717, 65.697, 62.634, 59.993, 58.08, 57.045, 56.876, 57.557, 59.073, 61.342, 64.253, 67.706, 71.625, 75.965, 80.713, 85.829, 91.233, 96.834, 102.533, 108.24, 113.909, 119.511, 125.027, 130.446, 135.765, 140.995, 146.162, 151.298, 156.426, 161.561, 166.717, 171.91, 177.165, 182.511, 187.974, 193.578, 199.339, 205.266, 211.37, 217.655, 224.124, 230.773, 237.597, 244.587, 251.735, 259.034, 266.477, 274.053, 281.748, 289.549, 297.437, 305.394, 313.399, 321.428, 329.456, 337.455, 345.399, 353.257, 361.001, 368.599, 376.021, 383.236, 390.212, 396.917, 403.32, 409.39, 415.096, 420.411, 425.306, 429.754, 433.733, 437.219, 440.193, 442.638, 444.538, 445.882, 446.66, 446.863, 446.49, 445.537, 444.008, 441.905, 439.237, 436.014, 432.249, 427.958, 423.16, 417.875, 412.127, 405.943, 399.348, 392.373, 385.048, 377.406, 369.48, 361.305, 352.917, 344.352, 335.646, 326.837, 317.962, 309.055, 300.153, 291.291, 282.501, 273.815, 265.266, 256.882, 248.69, 240.716, 232.984, 225.515, 218.33, 211.445, 204.875, 198.634, 192.732, 187.177, 181.975, 177.13, 172.644, 168.518, 164.748, 161.331, 158.26, 155.528, 153.124, 151.038, 149.257, 147.766, 146.551, 145.594, 144.879, 144.389, 144.104, 144.007, 144.078, 144.3, 144.652, 145.118, 145.678, 146.316, 147.015, 147.758, 148.531, 149.319, 150.109, 150.889, 151.647, 152.374, 153.061, 153.699, 154.281, 154.802, 155.257, 155.643, 155.957, 156.198, 156.366, 156.461, 156.486, 156.442, 156.333, 156.163, 155.936, 155.656, 155.33, 154.962, 154.558, 154.123, 153.664, 153.185, 152.694, 152.193, 151.689, 151.186, 150.687, 150.197, 149.717, 149.25, 148.799, 148.363, 147.944, 147.542, 147.156, 146.785, 146.428, 146.08, 145.74, 145.404, 145.067, 144.723, 144.368, 143.996, 143.6, 143.174, 142.711, 142.205, 141.649, 141.035, 140.357, 139.609, 138.783, 137.873, 136.872, 135.776, 134.578, 133.273, 131.856, 130.324, 128.671, 126.895, 124.992, 122.96, 120.795, 118.496, 116.062, 113.49, 110.78, 107.933, 104.948, 101.826, 98.568, 95.176, 91.653, 88.0, 84.221, 80.318, 76.295, 72.154, 67.9, 63.536, 59.067, 54.495, 49.825, 45.061, 40.206, 35.266, 30.244, 25.144, 19.971, 14.728, 9.42, 4.052, -1.372, -6.846, -12.366, -17.926, -23.521, -29.144, -34.789, -40.451, -46.123, -51.799, -57.473, -63.137, -68.786, -74.412, -80.008, -85.567, -91.082, -96.546, -101.951, -107.289, -112.552, -117.733, -122.825, -127.818, -132.706, -137.48, -142.132, -146.656, -151.044, -155.288, -159.382, -163.32, -167.096, -170.705, -174.142, -177.404, -180.487, -183.389, -186.109, -188.645, -190.997, -193.167, -195.154, -196.962, -198.594, -200.053, -201.343, -202.471, -203.442, -204.263, -204.941, -205.484, -205.9, -206.2, -206.391, -206.485, -206.491, -206.42, -206.284, -206.093, -205.86, -205.595, -205.311, -205.017, -204.726, -204.448, -204.192, -203.97, -203.79, -203.66, -203.589, -203.584, -203.652, -203.797, -204.023, -204.335, -204.735, -205.222, -205.799, -206.462, -207.21, -208.041, -208.949, -209.931, -210.979, -212.088, -213.25, -214.456, -215.697, -216.963, -218.243, -219.525, -220.796, -222.045, -223.257, -224.421, -225.522, -226.545, -227.479, -228.308, -229.018, -229.597, -230.03, -230.305, -230.408, -230.329, -230.056, -229.582, -228.897, -227.995, -226.871, -225.521, -223.943, -222.136, -220.098, -217.831, -215.337, -212.621, -209.689, -206.547, -203.205, -199.675, -195.973, -192.118, -188.127, -184.02, -179.817, -175.539, -171.211, -166.857, -162.502, -158.17, -153.886, -149.675, -145.566, -141.587, -137.765, -134.121, -130.672, -127.432, -124.418, -121.644, -119.122, -116.859, -114.857, -113.12, -111.659, -110.484, -109.602, -109.016, -108.722, -108.705, -108.951, -109.441, -110.145, -111.032, -112.063, -113.193, -114.373, -115.564, -116.731, -117.84, -118.874, -119.799, -120.562, -121.106, -121.365, -121.306, -120.966, -120.384, -119.554, -118.549, -117.539, -116.808, -116.875, -118.206, -120.92, -125.045, -130.612, -137.431, -145.172, -153.163, -159.946, -163.943, -164.299, -160.608, -152.806, -141.361, -126.948, -110.861, -95.835, -85.252, -81.681, -86.789, -101.291, -124.702, -155.831, -192.252, -229.411, -261.323, -281.601, -284.001, -263.53, -216.452, -141.765, -42.446, 78.918, 219.038, 374.509, 544.421, 717.866, 876.035, 1000.729, 1071.605, 1082.924, 1044.511, 966.332, 862.548, 742.179, 605.04, 455.676, 300.322, 146.56, 6.524, -110.978, -201.728, -264.229, -300.293, -313.495, -307.373, -285.833, -254.485, -219.385, -185.863, -157.803, -136.873, -123.086, -116.277, -116.379, -122.005, -130.813, -140.031, -147.108, -151.037, -151.951, -149.962, -144.881, -136.95, -126.922, -116.128, -106.216, -98.011, -91.629, -87.103, -84.485, -83.774, -84.86, -87.283, -90.259, -93.229, -95.879, -97.975, -99.423, -100.126, -99.962, -98.917, -97.08, -94.531, -91.353, -87.616, -83.343, -78.574, -73.378, -67.828, -62.024, -56.069, -50.057, -44.078, -38.194, -32.448, -26.871, -21.481, -16.28, -11.257, -6.389, -1.644, 2.997, 7.548, 12.025, 16.446, 20.837, 25.225, 29.629, 34.07, 38.562, 43.117, 47.746, 52.46, 57.262, 62.154, 67.134, 72.2, 77.351, 82.588, 87.909, 93.312, 98.791, 104.341, 109.958, 115.632, 121.355, 127.115, 132.896, 138.684, 144.464, 150.216, 155.919, 161.552, 167.091, 172.515, 177.803, 182.93, 187.874, 192.612, 197.121, 201.384, 205.384, 209.095, 212.499, 215.571, 218.291, 220.651, 222.647, 224.268, 225.507, 226.361, 226.825, 226.907, 226.617, 225.946, 224.889, 223.44, 221.592, 219.365, 216.776, 213.842, 210.588, 207.015, 203.126, 198.943, 194.49, 189.773, 184.81, 179.6, 174.139, 168.482, 162.683, 156.786, 150.846, 144.883, 138.913, 132.971, 127.084, 121.288, 115.627, 110.117, 104.771, 99.636, 94.744, 90.143, 85.888, 81.949, 78.299, 74.924, 71.796, 68.919, 66.298, 63.91, 61.735, 59.761, 57.968, 56.353, 54.913, 53.605, 52.397, 51.244, 50.095, 48.963, 47.857, 46.77, 45.703, 44.64, 43.561, 42.468, 41.363, 40.223, 39.032, 37.772, 36.418, 34.976, 33.449, 31.837, 30.149, 28.368, 26.477, 24.472, 22.346, 20.096, 17.724, 15.222, 12.586, 9.828, 6.959, 3.991, 0.941, -2.185, -5.38, -8.63, -11.924, -15.247, -18.583, -21.918, -25.238, -28.526, -31.766, -34.943, -38.039, -41.042, -43.943, -46.729, -49.392, -51.921, -54.308, -56.547, -58.632, -60.557, -62.32, -63.915, -65.343, -66.601, -67.692, -68.618, -69.383, -69.992, -70.449, -70.764, -70.944, -70.997, -70.933, -70.763, -70.496, -70.146, -69.723, -69.24, -68.711, -68.148, -67.565, -66.976, -66.393, -65.831, -65.3, -64.814, -64.383, -64.018, -63.728, -63.522, -63.409, -63.396, -63.49, -63.697, -64.022, -64.468, -65.038, -65.734, -66.555, -67.502, -68.574, -69.766, -71.077, -72.502, -74.036, -75.674, -77.41, -79.237, -81.147, -83.132, -85.181, -87.286, -89.436, -91.621, -93.83, -96.052, -98.277, -100.494, -102.692, -104.861, -106.991, -109.072, -111.095, -113.051, -114.93, -116.724, -118.426, -120.029, -121.527, -122.915, -124.187, -125.341, -126.373, -127.281, -128.062, -128.716, -129.241, -129.638, -129.906, -130.048, -130.065, -129.96, -129.735, -129.396, -128.945, -128.387, -127.728, -126.973, -126.128, -125.197, -124.187, -123.105, -121.956, -120.747, -119.484, -118.175, -116.827, -115.445, -114.037, -112.609, -111.167, -109.718, -108.266, -106.816, -105.375, -103.946, -102.535, -101.146, -99.783, -98.45, -97.152, -95.893, -94.675, -93.502, -92.378, -91.305, -90.286, -89.324, -88.421, -87.58, -86.803, -86.093, -85.452, -84.881, -84.383, -83.96, -83.611, -83.337, -83.14, -83.018, -82.971, -82.999, -83.1, -83.274, -83.519, -83.834, -84.216, -84.665, -85.178, -85.753, -86.387, -87.076, -87.818, -88.608, -89.442, -90.316, -91.223, -92.158, -93.116, -94.09, -95.073, -96.059, -97.039, -98.005, -98.949, -99.863, -100.738, -101.566, -102.338, -103.048, -103.686, -104.247, -104.726, -105.115, -105.411, -105.607, -105.701, -105.689, -105.568, -105.336, -104.991, -104.532, -103.961, -103.277, -102.483, -101.581, -100.578, -99.481, -98.301, -97.047, -95.733, -94.371, -92.975, -91.562, -90.144, -88.734, -87.343, -85.983, -84.667, -83.412, -82.234, -81.145, -80.159, -79.289, -78.543, -77.934, -77.468, -77.141, -76.951, -76.899, -76.994, -77.263, -77.731, -78.41, -79.315, -80.45, -81.811, -83.395, -85.177, -87.106, -89.131, -91.197, -93.257, -95.288, -97.257, -99.114, -100.794, -102.203, -103.253, -103.885, -104.045, -103.704, -102.868, -101.569, -99.88, -97.932, -95.862, -93.829, -92.02, -90.581, -89.646, -89.36, -89.917, -91.638, -94.807, -99.49, -105.457, -112.247, -119.317, -126.124, -132.0, -135.995, -137.284, -135.59, -131.612, -126.802, -122.601, -120.787, -123.282, -131.416, -146.429, -166.813, -186.928, -203.267, -213.516, -216.378, -215.287, -204.755, -170.967, -103.959, 7.147, 161.034, 338.724, 525.103, 703.731, 856.762, 979.145, 1061.042, 1093.135, 1081.903, 1030.482, 945.448, 833.921, 686.205, 500.211, 284.884, 60.596, -132.875, -266.87, -332.424, -339.789, -319.038, -292.208, -268.265, -246.624, -217.361, -177.865, -133.062, -89.051, -53.936, -31.685, -21.588, -22.31, -31.358, -45.601, -62.347, -79.121, -93.473, -103.74, -109.369, -110.236, -106.736, -99.999, -91.297, -81.936, -73.465, -66.927, -62.678, -60.863, -61.294, -63.524, -67.145, -71.606, -76.161, -80.3, -83.77, -86.43, -88.33, -89.534, -90.027, -89.86, -89.136, -87.924, -86.29, -84.278, -81.891, -79.158, -76.153, -72.96, -69.679, -66.406, -63.193, -60.075, -57.078, -54.215, -51.496, -48.921, -46.473, -44.132, -41.88, -39.701, -37.588, -35.525, -33.492, -31.46, -29.4, -27.286, -25.098, -22.82, -20.438, -17.939, -15.313, -12.553, -9.656, -6.622, -3.447, -0.126, 3.343, 6.964, 10.736, 14.657, 18.725, 22.936, 27.284, 31.759, 36.351, 41.047, 45.833, 50.693, 55.61, 60.565, 65.538, 70.507, 75.45, 80.343, 85.162, 89.88, 94.472, 98.911, 103.171, 107.225, 111.048, 114.613, 117.897, 120.877, 123.531, 125.84, 127.784, 129.346, 130.511, 131.266, 131.599, 131.501, 130.965, 129.985, 128.56, 126.689, 124.376, 121.625, 118.445, 114.846, 110.841, 106.444, 101.674, 96.549, 91.09, 85.323, 79.272, 72.965, 66.432, 59.702, 52.808, 45.782, 38.658, 31.469, 24.249, 17.033, 9.852, 2.741, -4.269, -11.145, -17.858, -24.378, -30.678, -36.73, -42.511, -47.997, -53.167, -58.003, -62.488, -66.608, -70.351, -73.707, -76.669, -79.233, -81.398, -83.163, -84.534, -85.515, -86.116, -86.349, -86.229, -85.77, -84.994, -83.921, -82.573, -80.977, -79.158, -77.145, -74.965, -72.649, -70.227, -67.729, -65.188, -62.633, -60.096, -57.607, -55.195, -52.89, -50.72, -48.71, -46.887, -45.274, -43.894, -42.766, -41.908, -41.338, -41.068, -41.11, -41.474, -42.166, -43.191, -44.548, -46.236, -48.252, -50.589, -53.235, -56.18, -59.409, -62.904, -66.646, -70.615, -74.787, -79.137, -83.64, -88.268, -92.993, -97.786, -102.618, -107.458, -112.278, -117.046, -121.733, -126.311, -130.751, -135.027, -139.112, -142.98, -146.61, -149.978, -153.065, -155.852, -158.323, -160.464, -162.262, -163.708, -164.795, -165.519, -165.877, -165.869, -165.498, -164.77, -163.692, -162.274, -160.528, -158.469, -156.112, -153.475, -150.578, -147.44, -144.084, -140.533, -136.809, -132.936, -128.938, -124.838, -120.661, -116.43, -112.169, -107.899, -103.643, -99.422, -95.256, -91.163, -87.16, -83.264, -79.489, -75.847, -72.35, -69.006, -65.825, -62.81, -59.968, -57.298, -54.802, -52.477, -50.319, -48.323, -46.481, -44.785, -43.223, -41.787, -40.462, -39.238, -38.102, -37.041, -36.041, -35.09, -34.175, -33.282, -32.399, -31.513, -30.612, -29.685, -28.723, -27.717, -26.66, -25.546, -24.369, -23.127, -21.817, -20.439, -18.993, -17.476, -15.893, -14.247, -12.543, -10.788, -8.989, -7.156, -5.301, -3.438, -1.58, 0.257, 2.062, 3.821, 5.524, 7.157, 8.711, 10.175, 11.541, 12.803, 13.948, 14.961, 15.83, 16.537, 17.085, 17.475, 17.707, 17.785, 17.718, 17.513, 17.191, 16.773, 16.257, 15.645, 14.938, 14.129, 13.236, 12.277, 11.271, 10.249, 9.224, 8.204, 7.211, 6.258, 5.336, 4.433, 3.514, 2.534, 1.502, 0.437, -0.645, -1.698, -2.698, -3.617, -4.41, -5.055, -5.536, -5.826, -5.917, -5.792, -5.394, -4.661, -3.501, -1.797, 0.497, 3.4, 6.922, 11.011, 15.607, 20.635, 25.976, 31.535, 37.247, 43.032, 48.818, 54.54, 60.093, 65.367, 70.23, 74.522, 78.133, 81.0, 83.108, 84.506, 85.281, 85.551, 85.474, 85.205, 84.869, 84.594, 84.5, 84.702, 85.303, 86.371, 87.975, 90.174, 93.011, 96.511, 100.608, 105.126, 109.856, 114.633, 119.284, 123.653, 127.527, 130.501, 132.217, 132.624, 131.901, 130.147, 127.477, 124.383, 121.409, 119.403, 119.691, 120.943, 121.373, 122.313, 123.058, 126.194, 134.898, 141.576, 142.78, 136.587, 118.646, 98.588, 80.81, 62.166, 48.581, 42.301, 53.812, 104.559, 203.889, 353.149, 541.399, 744.986, 941.414, 1109.081, 1232.875, 1304.033, 1320.691, 1291.974, 1228.802, 1141.706, 1037.356, 910.84, 754.76, 571.381, 371.803, 181.553, 34.644, -51.046, -73.129, -45.248, 4.082, 56.291, 103.19, 143.609, 185.272, 229.724, 273.085, 311.023, 336.879, 348.414, 347.845, 337.463, 320.301, 299.432, 276.571, 253.904, 234.506, 219.913, 210.491, 206.23, 206.201, 209.247, 214.657, 221.207, 227.104, 231.389, 233.641, 233.72, 232.115, 229.285, 225.507, 221.342, 217.465, 214.248, 211.905, 210.492, 209.845, 209.888, 210.602, 211.896, 213.694, 215.943, 218.592, 221.635, 225.069, 228.851, 232.909, 237.161, 241.532, 245.979, 250.468, 254.976, 259.487, 263.983, 268.459, 272.923, 277.369, 281.791, 286.183, 290.537, 294.854, 299.146, 303.423, 307.698, 311.987, 316.298, 320.638, 325.014, 329.428, 333.88, 338.373, 342.903, 347.471, 352.082, 356.738, 361.445, 366.204, 371.017, 375.887, 380.814, 385.798, 390.836, 395.926, 401.064, 406.245, 411.465, 416.717, 421.993, 427.285, 432.582, 437.872, 443.143, 448.379, 453.567, 458.688, 463.726, 468.664, 473.484, 478.168, 482.697, 487.054, 491.221, 495.18, 498.915, 502.409, 505.647, 508.612, 511.292, 513.672, 515.742, 517.491, 518.91, 519.99, 520.728, 521.117, 521.157, 520.846, 520.186, 519.179, 517.831, 516.147, 514.138, 511.813, 509.184, 506.267, 503.076, 499.63, 495.945, 492.043, 487.943, 483.665, 479.233, 474.667, 469.99, 465.226, 460.397, 455.527, 450.638, 445.753, 440.895, 436.084, 431.343, 426.69, 422.146, 417.727, 413.45, 409.332, 405.386, 401.625, 398.06, 394.701, 391.557, 388.633, 385.935, 383.464, 381.223, 379.21, 377.425, 375.862, 374.518, 373.387, 372.461, 371.733, 371.194, 370.835, 370.644, 370.611, 370.724, 370.97, 371.336, 371.81, 372.377, 373.024, 373.739, 374.507, 375.317, 376.155, 377.009, 377.867, 378.719, 379.552, 380.357, 381.125, 381.846, 382.513, 383.119, 383.658, 384.125, 384.516, 384.827, 385.056, 385.2, 385.258, 385.229, 385.112, 384.906, 384.613, 384.233, 383.766, 383.215, 382.582, 381.867, 381.074, 380.203, 379.259, 378.241, 377.153, 375.995, 374.77, 373.48, 372.125, 370.707, 369.227, 367.686, 366.084, 364.422, 362.698, 360.912, 359.062, 357.147, 355.165, 353.114, 350.991, 348.794, 346.52, 344.166, 341.729, 339.207, 336.595, 333.892, 331.092, 328.194, 325.194, 322.089, 318.876, 315.554, 312.118, 308.568, 304.902, 301.118, 297.216, 293.194, 289.051, 284.788, 280.404, 275.9, 271.277, 266.536, 261.678, 256.706, 251.623, 246.43, 241.13, 235.727, 230.224, 224.624, 218.932, 213.149, 207.282, 201.333, 195.308, 189.209, 183.042, 176.81, 170.519, 164.173, 157.774, 151.327, 144.837, 138.306, 131.738, 125.137, 118.505, 111.846, 105.163, 98.459, 91.736, 84.997, 78.245, 71.481, 64.709, 57.93, 51.147, 44.362, 37.578, 30.796, 24.021, 17.254, 10.5, 3.761, -2.96, -9.658, -16.328, -22.967, -29.568, -36.128, -42.64, -49.099, -55.497, -61.83, -68.089, -74.268, -80.36, -86.357, -92.252, -98.037, -103.703, -109.244, -114.653, -119.921, -125.042, -130.009, -134.816, -139.458, -143.93, -148.227, -152.346, -156.283, -160.037, -163.607, -166.993, -170.195, -173.219, -176.07, -178.76, -181.296, -183.693, -185.963, -188.122, -190.184, -192.165, -194.076, -195.929, -197.737, -199.516, -201.286, -203.065, -204.871, -206.721, -208.635, -210.627, -212.717, -214.915, -217.226, -219.655, -222.215, -224.925, -227.822, -230.943, -234.311, -237.951, -241.877, -246.097, -250.614, -255.413, -260.454, -265.693, -271.09, -276.608, -282.236, -287.951, -293.701, -299.426, -305.035, -310.445, -315.597, -320.444, -324.961, -329.157, -333.065, -336.756, -340.349, -343.975, -347.781, -351.933, -356.556, -361.796, -367.816, -374.828, -383.199, -393.186, -404.757, -417.65, -431.341, -445.18, -458.617, -470.978, -481.2, -488.623, -493.444, -496.586, -499.818, -505.041, -513.925, -527.947, -548.442, -576.139, -608.075, -639.78, -668.231, -688.033, -697.649, -696.224, -673.438, -624.362, -546.351, -435.974, -304.315, -157.932, 0.955, 160.176, 308.797, 426.73, 489.833, 488.947, 427.36, 322.52, 195.962, 61.007, -76.699, -218.407, -363.713, -506.499, -638.319, -749.891, -835.528, -894.522, -928.413, -940.055, -932.903, -911.013, -879.351, -843.414, -808.217, -777.381, -753.304, -737.494, -730.824, -733.169, -743.319, -759.04, -777.618, -796.702, -814.359, -829.229, -840.288, -846.968, -849.391, -848.315, -844.975, -840.707, -836.789, -834.055, -833.02, -833.971, -836.838, -841.35, -847.064, -853.363, -859.573, -865.236, -870.101, -874.046, -877.097, -879.284, -880.62, -881.187, -881.104, -880.463, -879.336, -877.767, -875.774, -873.406, -870.749, -867.902, -864.973, -862.058, -859.219, -856.498, -853.932, -851.546, -849.36, -847.387, -845.622, -844.057, -842.689, -841.521, -840.556, -839.793, -839.221, -838.823, -838.581, -838.479, -838.508, -838.658, -838.921, -839.291, -839.761, -840.327, -840.988, -841.742, -842.586, -843.511, -844.513, -845.585, -846.724, -847.926, -849.188, -850.509, -851.888, -853.328, -854.831, -856.401, -858.045, -859.767, -861.575, -863.476, -865.478, -867.591, -869.824, -872.186, -874.689, -877.343, -880.16, -883.152, -886.329, -889.704, -893.288, -897.091, -901.123, -905.393, -909.908, -914.675, -919.699, -924.984, -930.531, -936.34, -942.411, -948.74, -955.322, -962.148, -969.209, -976.493, -983.984, -991.667, -999.522, -1007.528, -1015.664, -1023.904, -1032.223, -1040.594, -1048.989, -1057.379, -1065.733, -1074.019, -1082.205, -1090.259, -1098.146, -1105.834, -1113.289, -1120.478, -1127.368, -1133.927, -1140.124, -1145.93, -1151.318, -1156.26, -1160.731, -1164.71, -1168.176, -1171.111, -1173.498, -1175.326, -1176.585, -1177.266, -1177.367, -1176.885, -1175.824, -1174.187, -1171.983, -1169.222, -1165.917, -1162.085, -1157.743, -1152.915, -1147.622, -1141.892, -1135.752, -1129.234, -1122.369, -1115.192, -1107.738, -1100.044, -1092.147, -1084.085, -1075.897, -1067.62, -1059.292, -1050.951, -1042.634, -1034.375, -1026.208, -1018.167, -1010.281, -1002.58, -995.088, -987.83, -980.825, -974.092, -967.646, -961.497, -955.655, -950.124, -944.906, -940.001, -935.404, -931.107, -927.098, -923.364, -919.887, -916.647, -913.619, -910.778, -908.095, -905.54, -903.078, -900.677, -898.3, -895.91, -893.469, -890.94, -888.282, -885.457, -882.427, -879.155, -875.602, -871.734, -867.517, -862.918, -857.908, -852.459, -846.545, -840.143, -833.235, -825.802, -817.83, -809.309, -800.232, -790.592, -780.391, -769.631, -758.317, -746.46, -734.071, -721.167, -707.766, -693.89, -679.563, -664.811, -649.663, -634.149, -618.302, -602.155, -585.744, -569.103, -552.27, -535.282, -518.176, -500.987, -483.752, -466.507, -449.284, -432.118, -415.039, -398.077, -381.261, -364.615, -348.164, -331.93, -315.931, -300.183, -284.701, -269.494, -254.57, -239.936, -225.591, -211.538, -197.771, -184.287, -171.077, -158.131, -145.438, -132.984, -120.753, -108.728, -96.89, -85.219, -73.694, -62.294, -50.996, -39.779, -28.62, -17.498, -6.393, 4.716, 15.849, 27.024, 38.258, 49.566, 60.965, 72.466, 84.083, 95.825, 107.699, 119.712, 131.865, 144.162, 156.6, 169.177, 181.888, 194.727, 207.684, 220.751, 233.916, 247.167, 260.489, 273.868, 287.285, 300.722, 314.162, 327.583, 340.967, 354.292, 367.539, 380.69, 393.726, 406.63, 419.384, 431.974, 444.387, 456.608, 468.626, 480.428, 492.0, 503.332, 514.414, 525.238, 535.798, 546.088, 556.107, 565.858, 575.347, 584.584, 593.576, 602.332, 610.858, 619.165, 627.262, 635.159, 642.861, 650.379, 657.725, 664.917, 671.984, 678.95, 685.824, 692.61, 699.306, 705.894, 712.365, 718.706, 724.888, 730.895, 736.724, 742.384, 747.91, 753.341, 758.696, 763.981, 769.185, 774.296, 779.329, 784.304, 789.242, 794.194, 799.201, 804.314, 809.62, 815.176, 820.991, 827.049, 833.275, 839.561, 845.834, 852.031, 858.09, 863.974, 869.624, 874.975, 879.977, 884.562, 888.658, 892.202, 895.099, 897.284, 898.768, 899.594, 899.867, 899.771, 899.457, 899.074, 898.792, 898.722, 898.945, 899.558, 900.614, 902.156, 904.262, 906.938, 910.13, 913.802, 917.839, 922.085, 926.396, 930.44, 933.76, 936.035, 937.086, 936.944, 935.941, 934.443, 932.74, 931.356, 931.01, 932.204, 934.975, 938.745, 942.412, 944.286, 942.606, 936.159, 923.39, 904.84, 884.271, 863.341, 843.276, 824.252, 801.874, 781.41, 777.073, 801.771, 871.143, 984.542, 1122.668, 1270.524, 1413.106, 1545.054, 1675.575, 1800.785, 1907.436, 1981.353, 2002.184, 1965.93, 1885.59, 1773.572, 1646.44, 1513.837, 1375.05, 1233.336, 1093.258, 961.605, 848.798, 761.091, 700.317, 666.119, 655.648, 665.389, 691.447, 728.286, 769.686, 810.153, 845.57, 873.332, 892.065, 901.03, 900.425, 891.795, 877.673, 860.878, 843.832, 828.391, 815.741, 806.757, 801.864, 800.807, 802.771, 806.582, 811.021, 814.935, 817.596, 818.574, 817.65, 814.928, 810.684, 805.323, 799.389, 793.507, 788.11, 783.438, 779.615, 776.613, 774.399, 772.961, 772.225, 772.076, 772.422, 773.189, 774.328, 775.823, 777.635, 779.685, 781.889, 784.146, 786.368, 788.499, 790.499, 792.337, 793.993, 795.449, 796.698, 797.748, 798.612, 799.297, 799.805, 800.138, 800.299, 800.299, 800.159, 799.895, 799.524, 799.056, 798.5, 797.861, 797.146, 796.358, 795.497, 794.562, 793.55, 792.46, 791.293, 790.051, 788.732, 787.336, 785.86, 784.298, 782.647, 780.901, 779.051, 777.087, 774.997, 772.771, 770.394, 767.854, 765.134, 762.22, 759.093, 755.737, 752.134, 748.264, 744.109, 739.651, 734.872, 729.753, 724.279, 718.435, 712.207, 705.584, 698.554, 691.11, 683.245, 674.955, 666.237, 657.092, 647.52, 637.527, 627.119, 616.305, 605.098, 593.513, 581.566, 569.278, 556.671, 543.77, 530.603, 517.2, 503.592, 489.813, 475.899, 461.888, 447.819, 433.732, 419.67, 405.673, 391.785, 378.047, 364.501, 351.188, 338.149, 325.421, 313.043, 301.049, 289.475, 278.351, 267.709, 257.576, 247.977, 238.934, 230.468, 222.597, 215.333, 208.689, 202.672, 197.289, 192.541, 188.427, 184.944, 182.084, 179.837, 178.189, 177.124, 176.622, 176.661, 177.216, 178.261, 179.765, 181.699, 184.03, 186.726, 189.751, 193.072, 196.652, 200.458, 204.453, 208.603, 212.873, 217.228, 221.636, 226.065, 230.482, 234.86, 239.168, 243.38, 247.471, 251.417, 255.195, 258.785, 262.169, 265.331, 268.255, 270.931, 273.348, 275.5, 277.38, 278.986, 280.317, 281.374, 282.158, 282.675, 282.929, 282.927, 282.678, 282.189, 281.471, 280.533, 279.386, 278.043, 276.513, 274.808, 272.94, 270.92, 268.759, 266.468, 264.058, 261.54, 258.923, 256.218, 253.433, 250.578, 247.66, 244.687, 241.666, 238.601, 235.498, 232.361, 229.193, 225.995, 222.768, 219.515, 216.234, 212.924, 209.584, 206.212, 202.807, 199.364, 195.882, 192.358, 188.789, 185.171, 181.502, 177.779, 174.001, 170.164, 166.267, 162.308, 158.284, 154.195, 150.039, 145.816, 141.523, 137.162, 132.731, 128.232, 123.665, 119.032, 114.335, 109.575, 104.755, 99.878, 94.948, 89.969, 84.945, 79.88, 74.781, 69.652, 64.499, 59.329, 54.148, 48.961, 43.775, 38.595, 33.429, 28.281, 23.159, 18.067, 13.013, 8.002, 3.04, -1.866, -6.711, -11.488, -16.193, -20.819, -25.362, -29.815, -34.175, -38.436, -42.594, -46.643, -50.58, -54.401, -58.101, -61.677, -65.126, -68.447, -71.635, -74.691, -77.612, -80.397, -83.047, -85.56, -87.937, -90.177, -92.283, -94.256, -96.096, -97.809, -99.395, -100.861, -102.209, -103.446, -104.577, -105.607, -106.544, -107.395, -108.166, -108.866, -109.503, -110.087, -110.627, -111.133, -111.616, -112.087, -112.556, -113.036, -113.538, -114.074, -114.654, -115.292, -115.998, -116.785, -117.664, -118.647, -119.744, -120.967, -122.326, -123.83, -125.489, -127.31, -129.299, -131.463, -133.807, -136.334, -139.048, -141.95, -145.042, -148.324, -151.794, -155.453, -159.295, -163.318, -167.515, -171.881, -176.407, -181.085, -185.905, -190.855, -195.924, -201.099, -206.367, -211.711, -217.118, -222.571, -228.053, -233.545, -239.031, -244.493, -249.911, -255.269, -260.548, -265.731, -270.803, -275.747, -280.55, -285.197, -289.676, -293.974, -298.081, -301.988, -305.684, -309.163, -312.417, -315.442, -318.234, -320.792, -323.113, -325.202, -327.065, -328.709, -330.145, -331.384, -332.44, -333.328, -334.063, -334.662, -335.139, -335.51, -335.791, -335.997, -336.149, -336.269, -336.375, -336.484, -336.61, -336.766, -336.962, -337.213, -337.519, -337.883, -338.316, -338.826, -339.44, -340.188, -341.088, -342.158, -343.406, -344.831, -346.43, -348.194, -350.084, -352.066, -354.101, -356.143, -358.173, -360.155, -362.029, -363.746, -365.219, -366.361, -367.13, -367.461, -367.31, -366.682, -365.592, -364.087, -362.295, -360.291, -358.128, -356.044, -354.247, -352.977, -352.549, -353.096, -354.775, -357.863, -362.495, -368.309, -374.644, -380.549, -385.008, -387.54, -387.685, -385.129, -379.869, -372.515, -365.147, -360.726, -361.685, -369.861, -384.784, -402.934, -423.632, -446.848, -472.432, -503.631, -533.272, -545.952, -527.713, -461.958, -347.012, -198.182, -30.841, 136.44, 291.942, 435.019, 561.913, 667.324, 744.322, 783.209, 778.661, 731.835, 649.248, 539.734, 410.238, 262.142, 93.814, -90.947, -277.668, -440.642, -554.522, -607.384, -605.67, -572.48, -530.967, -494.903, -467.913, -444.01, -419.445, -395.095, -373.464, -359.532, -355.75, -360.698, -371.8, -385.316, -397.422, -406.326, -411.586, -412.843, -410.01, -403.475, -393.879, -382.612, -371.731, -362.432, -355.099, -349.997, -347.134, -346.421, -347.805, -350.821, -354.628, -358.661, -362.57, -366.086, -369.107, -371.505, -373.118, -373.914, -373.956, -373.291, -371.979, -370.062, -367.555, -364.507, -360.99, -357.076, -352.852, -348.409, -343.835, -339.223, -334.658, -330.2, -325.891, -321.762, -317.828, -314.094, -310.553, -307.188, -303.975, -300.899, -297.944, -295.092, -292.319, -289.599, -286.903, -284.209, -281.496, -278.749, -275.952, -273.092, -270.161, -267.159, -264.081, -260.925, -257.684, -254.342, -250.883, -247.312, -243.634, -239.865, -236.034, -232.161, -228.271, -224.403, -220.586, -216.835, -213.157, -209.531, -205.936, -202.372, -198.851, -195.403, -192.063, -188.832, -185.709, -182.69, -179.744, -176.848, -173.973, -171.052, -168.048, -164.972, -161.86, -158.808, -155.934, -153.316, -151.009, -149.054, -147.474, -146.321, -145.649, -145.495, -145.923, -146.995, -148.788, -151.428, -155.002, -159.526, -164.973, -171.245, -178.197, -185.73, -193.76, -202.204, -211.001, -220.079, -229.361, -238.804, -248.349, -257.919, -267.421, -276.717, -285.686, -294.271, -302.444, -310.23, -317.688, -324.85, -331.737, -338.38, -344.788, -350.969, -356.928, -362.639, -368.08, -373.245, -378.147, -382.819, -387.3, -391.597, -395.706, -399.608, -403.269, -406.67, -409.794, -412.619, -415.137, -417.346, -419.254, -420.882, -422.262, -423.415, -424.357, -425.103, -425.663, -426.053, -426.297, -426.414, -426.429, -426.368, -426.253, -426.112, -425.971, -425.849, -425.765, -425.735, -425.768, -425.877, -426.074, -426.368, -426.77, -427.288, -427.93, -428.702, -429.61, -430.658, -431.848, -433.178, -434.646, -436.25, -437.985, -439.844, -441.819, -443.903, -446.085, -448.354, -450.698, -453.103, -455.555, -458.041, -460.544, -463.048, -465.537, -467.993, -470.4, -472.74, -474.996, -477.149, -479.178, -481.067, -482.805, -484.38, -485.781, -486.993, -487.996, -488.78, -489.35, -489.689, -489.76, -489.53, -488.966, -488.058, -486.847, -485.338, -483.483, -481.312, -478.933, -476.432, -473.901, -471.358, -468.681, -465.835, -462.95, -459.906, -456.178, -451.609, -446.398, -440.519, -434.469, -427.396, -416.098, -400.979, -385.234, -373.555, -375.146, -390.347, -409.708, -424.189, -420.552, -396.385, -364.458, -334.599, -316.973, -315.007, -317.838, -317.909, -313.621, -304.031, -296.846, -298.74, -304.332, -310.333, -311.044, -299.171, -281.515, -263.582, -248.928, -243.588, -243.289, -243.65, -243.678, -240.67, -236.082, -231.862, -227.672, -223.777, -220.034, -216.038, -212.044, -208.258, -204.617, -201.102, -197.727, -194.474, -191.321, -188.251, -185.217, -182.166, -179.106, -176.045, -172.968, -169.865, -166.725, -163.536, -160.293, -156.993, -153.622, -150.171, -146.632, -142.997, -139.26, -135.417, -131.464, -127.398, -123.215, -118.914, -114.495, -109.958, -105.303, -100.532, -95.648, -90.653, -85.553, -80.353, -75.057, -69.674, -64.21, -58.674, -53.075, -47.422, -41.726, -35.998, -30.25, -24.494, -18.744, -13.013, -7.317, -1.669, 3.915, 9.422, 14.836, 20.143, 25.33, 30.382, 35.289, 40.035, 44.612, 49.007, 53.209, 57.211, 61.002, 64.576, 67.925, 71.045, 73.929, 76.575, 78.979, 81.14, 83.057, 84.731, 86.163, 87.356, 88.314, 89.045, 89.554, 89.852, 89.949, 89.856, 89.587, 89.154, 88.574, 87.862, 87.035, 86.108, 85.099, 84.026, 82.907, 81.76, 80.604, 79.456, 78.335, 77.259, 76.247, 75.315, 74.481, 73.761, 73.172, 72.731, 72.453, 72.352, 72.444, 72.742, 73.257, 74.001, 74.984, 76.214, 77.696, 79.435, 81.434, 83.694, 86.215, 88.994, 92.028, 95.31, 98.835, 102.594, 106.579, 110.778, 115.18, 119.773, 124.541, 129.469, 134.537, 139.725, 145.012, 150.374, 155.788, 161.228, 166.67, 172.088, 177.461, 182.77, 187.993, 193.109, 198.092, 202.922, 207.577, 212.041, 216.297, 220.333, 224.136, 227.699, 231.024, 234.114, 236.966, 239.573, 241.91, 243.954, 245.689, 247.104, 248.194, 248.965, 249.42, 249.578, 249.483, 249.18, 248.716, 248.137, 247.468, 246.749, 246.036, 245.402, 244.95, 244.781, 244.976, 245.602, 246.699, 248.275, 250.318, 252.784, 255.598, 258.663, 261.845, 264.983, 267.934, 270.522, 272.586, 273.903, 274.074, 272.829, 270.141, 266.242, 261.72, 257.278, 253.494, 251.07, 250.932, 253.558, 258.776, 265.554, 271.887, 275.662, 274.761, 267.353, 252.26, 228.976, 200.441, 171.464, 145.552, 128.537, 122.591, 128.923, 157.857, 215.834, 309.01, 442.466, 603.349, 777.332, 950.527, 1105.592, 1236.029, 1336.359, 1399.261, 1421.569, 1400.905, 1339.875, 1243.488, 1117.043, 965.981, 792.632, 608.292, 432.005, 281.38, 175.442, 118.312, 97.887, 102.951, 120.221, 142.101, 170.557, 203.619, 237.655, 269.326, 293.184, 306.535, 309.295, 302.661, 289.49, 273.469, 258.448, 246.867, 239.688, 237.433, 240.251, 247.705, 259.036, 272.656, 286.274, 298.522, 308.853, 316.921, 322.675, 326.137, 327.328, 326.709, 325.116, 323.067, 320.85, 318.69, 316.662, 314.942, 313.743, 313.121, 313.034, 313.45, 314.338, 315.685, 317.501, 319.735, 322.306, 325.142, 328.16, 331.296, 334.482, 337.634, 340.67, 343.505, 346.078, 348.351, 350.297, 351.905, 353.177, 354.125, 354.773, 355.16, 355.321, 355.288, 355.103, 354.8, 354.419, 354.001, 353.581, 353.196, 352.888, 352.696, 352.662, 352.819, 353.185, 353.776, 354.6, 355.659, 356.948, 358.453, 360.144, 361.995, 363.988, 366.109, 368.35, 370.695, 373.109, 375.565, 378.033, 380.499, 382.973, 385.47, 388.007, 390.631, 393.405, 396.415, 399.766, 403.529, 407.733, 412.389, 417.484, 423.016, 428.995, 435.398, 442.183, 449.28, 456.588, 463.994, 471.36, 478.479, 485.086, 490.89, 495.578, 498.905, 500.703, 500.836, 499.203, 495.698, 490.225, 482.739, 473.224, 461.694, 448.181, 432.729, 415.431, 396.498, 376.234, 354.986, 333.126, 310.95, 288.678, 266.51, 244.611, 223.146, 202.265, 182.071, 162.654, 144.107, 126.535, 110.058, 94.744, 80.548, 67.342, 54.952, 43.177, 31.882, 20.979, 10.39, 0.066, -10.029, -19.916, -29.579, -39.004, -48.206, -57.224, -66.128, -74.965, -83.707, -92.283, -100.589, -108.503, -115.938, -122.833, -129.126, -134.78, -139.777, -144.116, -147.825, -150.932, -153.446, -155.357, -156.64, -157.275, -157.274, -156.666, -155.496, -153.824, -151.7, -149.17, -146.289, -143.102, -139.64, -135.933, -131.993, -127.831, -123.467, -118.93, -114.249, -109.461, -104.593, -99.671, -94.719, -89.757, -84.802, -79.872, -74.979, -70.137, -65.363, -60.672, -56.083, -51.619, -47.295, -43.128, -39.132, -35.319, -31.699, -28.282, -25.073, -22.076, -19.295, -16.731, -14.387, -12.263, -10.356, -8.665, -7.186, -5.912, -4.837, -3.953, -3.252, -2.723, -2.357, -2.14, -2.063, -2.112, -2.275, -2.539, -2.893, -3.323, -3.816, -4.36, -4.942, -5.548, -6.167, -6.786, -7.394, -7.979, -8.53, -9.039, -9.497, -9.897, -10.232, -10.498, -10.689, -10.804, -10.839, -10.794, -10.67, -10.466, -10.185, -9.83, -9.406, -8.916, -8.366, -7.763, -7.112, -6.421, -5.698, -4.951, -4.188, -3.418, -2.651, -1.895, -1.161, -0.458, 0.204, 0.816, 1.368, 1.851, 2.256, 2.574, 2.798, 2.919, 2.932, 2.828, 2.604, 2.254, 1.775, 1.163, 0.416, -0.468, -1.489, -2.649, -3.946, -5.381, -6.952, -8.657, -10.493, -12.459, -14.55, -16.761, -19.089, -21.528, -24.071, -26.713, -29.448, -32.266, -35.162, -38.127, -41.152, -44.23, -47.35, -50.505, -53.684, -56.879, -60.081, -63.28, -66.468, -69.636, -72.776, -75.88, -78.939, -81.946, -84.893, -87.773, -90.577, -93.299, -95.931, -98.466, -100.899, -103.223, -105.432, -107.522, -109.489, -111.328, -113.037, -114.613, -116.053, -117.358, -118.526, -119.557, -120.452, -121.214, -121.842, -122.342, -122.714, -122.963, -123.093, -123.108, -123.012, -122.811, -122.51, -122.114, -121.63, -121.065, -120.426, -119.721, -118.958, -118.146, -117.293, -116.408, -115.502, -114.583, -113.66, -112.742, -111.839, -110.958, -110.107, -109.295, -108.527, -107.812, -107.155, -106.562, -106.039, -105.591, -105.221, -104.934, -104.733, -104.622, -104.602, -104.677, -104.846, -105.11, -105.47, -105.926, -106.476, -107.118, -107.85, -108.667, -109.566, -110.539, -111.582, -112.686, -113.843, -115.047, -116.287, -117.557, -118.847, -120.151, -121.46, -122.766, -124.062, -125.339, -126.592, -127.812, -128.992, -130.128, -131.212, -132.24, -133.208, -134.113, -134.954, -135.735, -136.455, -137.115, -137.719, -138.272, -138.783, -139.261, -139.713, -140.144, -140.558, -140.966, -141.376, -141.801, -142.247, -142.716, -143.211, -143.74, -144.31, -144.936, -145.618, -146.345, -147.106, -147.894, -148.713, -149.585, -150.527, -151.544, -152.643, -153.833, -155.125, -156.541, -158.076, -159.698, -161.362, -163.008, -164.602, -166.144, -167.641, -169.108, -170.518, -171.788, -172.83, -173.564, -173.941, -173.97, -173.617, -172.783, -171.498, -169.924, -168.43, -167.626, -167.868, -169.155, -171.424, -174.618, -178.674, -183.553, -188.638, -192.509, -194.124, -193.071, -189.397, -183.628, -176.02, -166.564, -156.257, -147.528, -142.866, -144.355, -153.152, -169.127, -192.393, -223.087, -259.728, -298.622, -334.82, -362.759, -377.123, -373.756, -348.261, -296.003, -216.196, -112.895, 8.859, 142.201, 284.737, 440.493, 605.32, 767.653, 905.42, 986.191, 993.397, 928.782, 809.251, 666.124, 515.125, 354.709, 183.0, -3.778, -189.506, -340.385, -437.477, -471.591, -450.869, -402.806, -341.777, -279.388, -227.619, -186.597, -164.146, -163.002, -173.991, -192.508, -209.39, -218.955, -225.158, -229.015, -231.963, -234.612, -233.187, -225.95, -213.53, -197.256, -179.921, -163.67, -149.081, -136.405, -125.831, -117.514, -111.524, -107.563, -104.967, -103.112, -101.709, -100.645, -99.821, -99.112, -98.333, -97.336, -96.129, -94.715, -93.019, -90.973, -88.503, -85.571, -82.229, -78.547, -74.57, -70.35, -65.934, -61.369, -56.74, -52.105, -47.492, -42.933, -38.421, -33.978, -29.674, -25.55, -21.627, -17.914, -14.387, -11.02, -7.809, -4.731, -1.746, 1.181, 4.097, 7.036, 10.004, 13.015, 16.069, 19.181, 22.397, 25.752, 29.278, 33.01, 36.967, 41.162, 45.617, 50.34, 55.312, 60.511, 65.897, 71.413, 77.031, 82.732, 88.506, 94.355, 100.273, 106.25, 112.282, 118.363, 124.484, 130.649, 136.843, 143.042, 149.251, 155.49, 161.808, 168.29, 174.979, 181.87, 188.941, 196.133, 203.374, 210.586, 217.661, 224.459, 230.859, 236.75, 242.043, 246.685, 250.59, 253.647, 255.72, 256.636, 256.271, 254.569, 251.492, 247.039, 241.25, 234.181, 225.951, 216.74, 206.695, 195.942, 184.583, 172.684, 160.344, 147.688, 134.853, 122.002, 109.267, 96.741, 84.514, 72.661, 61.221, 50.214, 39.611, 29.33, 19.323, 9.572, 0.071, -9.154, -18.095, -26.759, -35.146, -43.259, -51.1, -58.661, -65.94, -72.942, -79.654, -86.051, -92.091, -97.711, -102.867, -107.538, -111.709, -115.381, -118.559, -121.246, -123.457, -125.218, -126.552, -127.481, -128.025, -128.201, -128.033, -127.552, -126.79, -125.789, -124.583, -123.206, -121.69, -120.069, -118.37, -116.623, -114.852, -113.076, -111.318, -109.6, -107.945, -106.376, -104.915, -103.58, -102.389, -101.363, -100.514, -99.858, -99.404, -99.162, -99.138, -99.339, -99.768, -100.428, -101.32, -102.444, -103.797, -105.376, -107.178, -109.195, -111.42, -113.845, -116.459, -119.253, -122.215, -125.332, -128.591, -131.98, -135.485, -139.092, -142.788, -146.557, -150.385, -154.258, -158.159, -162.075, -165.989, -169.888, -173.756, -177.58, -181.345, -185.039, -188.649, -192.163, -195.567, -198.852, -202.005, -205.016, -207.875, -210.573, -213.101, -215.452, -217.619, -219.595, -221.375, -222.955, -224.331, -225.499, -226.457, -227.203, -227.736, -228.055, -228.162, -228.056, -227.741, -227.217, -226.487, -225.556, -224.427, -223.105, -221.594, -219.901, -218.032, -215.994, -213.794, -211.442, -208.945, -206.314, -203.559, -200.691, -197.72, -194.657, -191.515, -188.305, -185.039, -181.73, -178.391, -175.035, -171.674, -168.322, -164.991, -161.696, -158.448, -155.262, -152.15, -149.124, -146.197, -143.382, -140.691, -138.136, -135.727, -133.477, -131.396, -129.493, -127.777, -126.257, -124.939, -123.829, -122.934, -122.258, -121.803, -121.572, -121.566, -121.786, -122.231, -122.898, -123.786, -124.888, -126.201, -127.718, -129.43, -131.33, -133.407, -135.653, -138.054, -140.6, -143.277, -146.073, -148.971, -151.958, -155.018, -158.135, -161.292, -164.473, -167.662, -170.842, -173.997, -177.111, -180.169, -183.156, -186.056, -188.857, -191.544, -194.106, -196.529, -198.805, -200.921, -202.871, -204.647, -206.241, -207.65, -208.869, -209.896, -210.728, -211.366, -211.81, -212.062, -212.125, -212.003, -211.701, -211.226, -210.583, -209.781, -208.828, -207.734, -206.506, -205.156, -203.692, -202.125, -200.465, -198.723, -196.908, -195.03, -193.1, -191.128, -189.122, -187.091, -185.043, -182.985, -180.924, -178.865, -176.813, -174.772, -172.744, -170.732, -168.738, -166.76, -164.799, -162.851, -160.915, -158.987, -157.062, -155.135, -153.2, -151.253, -149.287, -147.296, -145.274, -143.214, -141.109, -138.952, -136.737, -134.458, -132.11, -129.685, -127.18, -124.591, -121.917, -119.161, -116.322, -113.404, -110.407, -107.337, -104.202, -101.01, -97.773, -94.499, -91.195, -87.87, -84.536, -81.209, -77.9, -74.618, -71.366, -68.15, -64.979, -61.865, -58.824, -55.857, -52.961, -50.13, -47.366, -44.684, -42.103, -39.634, -37.281, -35.045, -32.928, -30.943, -29.1, -27.384, -25.768, -24.208, -22.649, -21.068, -19.453, -17.803, -16.128, -14.378, -12.48, -10.357, -7.931, -5.17, -2.108, 1.278, 5.061, 9.18, 13.469, 17.533, 20.735, 22.722, 23.497, 23.148, 21.743, 19.32, 15.964, 12.393, 10.15, 10.398, 13.532, 19.344, 27.218, 36.865, 48.198, 60.159, 70.167, 75.598, 74.634, 66.653, 52.303, 31.969, 5.844, -24.53, -55.366, -81.75, -98.766, -102.108, -88.601, -54.791, 2.915, 84.751, 186.565, 303.331, 430.797, 569.579, 723.294, 887.497, 1047.641, 1178.947, 1255.835, 1266.652, 1215.912, 1122.544, 1007.63, 884.142, 756.469, 622.324, 481.676, 340.381, 208.111, 95.636, 9.541, -48.587, -80.098, -88.177, -76.05, -47.581, -8.645, 34.458, 75.989, 111.537, 139.107, 157.884, 167.096, 167.063, 159.616, 147.335, 133.518, 121.114, 111.365, 104.849, 102.235, 103.6, 108.512, 116.172, 125.004, 133.365, 140.524, 146.127, 149.884, 151.861, 152.161, 150.958, 148.832, 146.455, 144.204, 142.328, 140.976, 140.089, 139.626, 139.528, 139.596, 139.648, 139.549, 139.178, 138.46, 137.35, 135.804, 133.811, 131.387, 128.542, 125.303, 121.701, 117.788, 113.693, 109.553, 105.507, 101.712, 98.27, 95.282, 92.868, 91.123, 90.127, 89.941, 90.578, 92.046, 94.375, 97.558, 101.561, 106.313, 111.665, 117.497, 123.717, 130.234, 136.991, 143.929, 150.968, 158.051, 165.145, 172.208, 179.212, 186.117, 192.839, 199.336, 205.599, 211.647, 217.549, 223.347, 229.046, 234.655, 240.166, 245.573, 250.873, 256.043, 261.035, 265.815, 270.362, 274.665, 278.742, 282.59, 286.181, 289.479, 292.429, 294.987, 297.129, 298.827, 300.053, 300.786, 301.014, 300.738, 299.976, 298.741, 297.04, 294.876, 292.25, 289.171, 285.656, 281.726, 277.406, 272.723, 267.705, 262.383, 256.794, 250.974, 244.956, 238.77, 232.444, 226.009, 219.497, 212.94, 206.369, 199.815, 193.311, 186.887, 180.575, 174.405, 168.404, 162.599, 157.011, 151.663, 146.575, 141.766, 137.25, 133.041, 129.15, 125.587, 122.359, 119.473, 116.931, 114.733, 112.88, 111.369, 110.193, 109.349, 108.825, 108.614, 108.703, 109.082, 109.736, 110.652, 111.816, 113.212, 114.825, 116.639, 118.637, 120.801, 123.114, 125.557, 128.113, 130.763, 133.49, 136.277, 139.107, 141.965, 144.835, 147.703, 150.555, 153.379, 156.162, 158.892, 161.558, 164.149, 166.655, 169.068, 171.378, 173.577, 175.66, 177.618, 179.445, 181.136, 182.684, 184.085, 185.333, 186.423, 187.351, 188.113, 188.706, 189.126, 189.372, 189.442, 189.336, 189.053, 188.592, 187.955, 187.142, 186.153, 184.991, 183.655, 182.149, 180.476, 178.637, 176.637, 174.48, 172.172, 169.716, 167.12, 164.39, 161.533, 158.556, 155.467, 152.276, 148.992, 145.625, 142.186, 138.687, 135.139, 131.556, 127.948, 124.327, 120.707, 117.098, 113.512, 109.96, 106.451, 102.998, 99.609, 96.294, 93.062, 89.921, 86.879, 83.941, 81.113, 78.4, 75.804, 73.327, 70.971, 68.734, 66.616, 64.613, 62.721, 60.935, 59.247, 57.65, 56.133, 54.685, 53.293, 51.945, 50.625, 49.318, 48.008, 46.679, 45.315, 43.898, 42.411, 40.838, 39.16, 37.361, 35.425, 33.334, 31.073, 28.627, 25.982, 23.123, 20.04, 16.72, 13.155, 9.335, 5.254, 0.905, -3.715, -8.608, -13.776, -19.217, -24.928, -30.904, -37.138, -43.622, -50.346, -57.296, -64.462, -71.827, -79.378, -87.097, -94.966, -102.967, -111.081, -119.289, -127.57, -135.903, -144.267, -152.641, -161.005, -169.338, -177.619, -185.828, -193.945, -201.951, -209.827, -217.556, -225.118, -232.5, -239.684, -246.658, -253.409, -259.925, -266.197, -272.216, -277.975, -283.468, -288.689, -293.636, -298.304, -302.691, -306.795, -310.617, -314.156, -317.413, -320.391, -323.09, -325.513, -327.662, -329.54, -331.15, -332.494, -333.575, -334.396, -334.959, -335.268, -335.327, -335.138, -334.706, -334.034, -333.125, -331.982, -330.609, -329.008, -327.18, -325.129, -322.857, -320.365, -317.658, -314.737, -311.608, -308.278, -304.755, -301.045, -297.16, -293.108, -288.9, -284.548, -280.061, -275.448, -270.718, -265.88, -260.946, -255.931, -250.849, -245.718, -240.55, -235.361, -230.165, -224.974, -219.799, -214.645, -209.515, -204.416, -199.365, -194.389, -189.521, -184.784, -180.199, -175.781, -171.535, -167.46, -163.546, -159.759, -156.065, -152.428, -148.822, -145.233, -141.65, -138.048, -134.378, -130.575, -126.566, -122.298, -117.727, -112.827, -107.607, -102.097, -96.376, -90.56, -84.753, -79.072, -73.641, -68.585, -64.047, -60.183, -57.138, -55.124, -54.462, -55.317, -57.644, -61.159, -65.197, -69.058, -72.208, -73.989, -73.571, -70.546, -65.094, -58.091, -51.488, -47.222, -46.427, -50.056, -58.868, -72.683, -90.23, -108.798, -123.58, -129.395, -122.149, -98.022, -53.83, 12.336, 100.996, 210.361, 335.557, 470.029, 606.997, 738.961, 858.059, 956.368, 1026.431, 1062.62, 1063.509, 1031.8, 970.817, 883.582, 769.184, 625.054, 455.583, 274.551, 106.759, -21.786, -97.549, -123.474, -117.903, -100.797, -82.88, -65.3, -42.327, -11.063, 25.405, 61.354, 90.531, 109.962, 119.392, 119.646, 113.054, 102.2, 89.911, 79.098, 71.176, 66.721, 66.371, 70.174, 77.655, 87.998, 99.56, 110.54, 120.046, 127.624, 132.905, 135.9, 136.684, 135.419, 132.732, 129.392, 125.885, 122.558, 119.651, 117.215, 115.332, 114.094, 113.464, 113.37, 113.758, 114.568, 115.768, 117.358, 119.308, 121.569, 124.082, 126.765, 129.533, 132.309, 135.016, 137.6, 140.026, 142.267, 144.307, 146.146, 147.791, 149.263, 150.586, 151.776, 152.849, 153.821, 154.71, 155.54, 156.335, 157.114, 157.896, 158.695, 159.522, 160.388, 161.302, 162.266, 163.284, 164.354, 165.474, 166.643, 167.861, 169.127, 170.439, 171.792, 173.183, 174.606, 176.055, 177.523, 179.0, 180.474, 181.934, 183.366, 184.755, 186.086, 187.343, 188.508, 189.565, 190.496, 191.284, 191.911, 192.36, 192.616, 192.66, 192.479, 192.058, 191.382, 190.439, 189.217, 187.707, 185.899, 183.786, 181.364, 178.627, 175.573, 172.202, 168.515, 164.513, 160.201, 155.584, 150.669, 145.467, 139.987, 134.242, 128.246, 122.016, 115.568, 108.921, 102.093, 95.106, 87.979, 80.735, 73.396, 65.982, 58.518, 51.025, 43.525, 36.042, 28.596, 21.209, 13.901, 6.693, -0.397, -7.351, -14.153, -20.785, -27.235, -33.488, -39.533, -45.359, -50.956, -56.316, -61.432, -66.299, -70.912, -75.27, -79.371, -83.216, -86.806, -90.145, -93.237, -96.087, -98.703, -101.09, -103.259, -105.217, -106.974, -108.541, -109.93, -111.15, -112.216, -113.137, -113.928, -114.599, -115.165, -115.636, -116.024, -116.342, -116.602, -116.813, -116.987, -117.135, -117.265, -117.389, -117.514, -117.649, -117.802, -117.979, -118.187, -118.431, -118.716, -119.046, -119.424, -119.853, -120.335, -120.872, -121.465, -122.116, -122.823, -123.589, -124.411, -125.29, -126.224, -127.212, -128.253, -129.345, -130.486, -131.675, -132.91, -134.188, -135.509, -136.87, -138.269, -139.704, -141.174, -142.676, -144.208, -145.768, -147.355, -148.965, -150.598, -152.253, -153.926, -155.618, -157.326, -159.049, -160.785, -162.533, -164.29, -166.054, -167.822, -169.591, -171.358, -173.12, -174.872, -176.611, -178.332, -180.031, -181.701, -183.337, -184.933, -186.481, -187.976, -189.409, -190.773, -192.06, -193.263, -194.373, -195.382, -196.282, -197.065, -197.723, -198.246, -198.626, -198.855, -198.923, -198.822, -198.545, -198.083, -197.429, -196.577, -195.519, -194.251, -192.768, -191.065, -189.139, -186.986, -184.605, -181.994, -179.152, -176.082, -172.784, -169.261, -165.518, -161.56, -157.391, -153.02, -148.452, -143.697, -138.763, -133.66, -128.397, -122.986, -117.439, -111.768, -105.986, -100.108, -94.148, -88.122, -82.044, -75.93, -69.795, -63.656, -57.527, -51.425, -45.365, -39.363, -33.434, -27.595, -21.859, -16.243, -10.759, -5.42, -0.239, 4.773, 9.605, 14.249, 18.694, 22.934, 26.961, 30.767, 34.348, 37.697, 40.811, 43.687, 46.324, 48.721, 50.878, 52.799, 54.486, 55.943, 57.175, 58.187, 58.985, 59.576, 59.967, 60.168, 60.187, 60.035, 59.723, 59.261, 58.663, 57.941, 57.106, 56.17, 55.145, 54.041, 52.87, 51.642, 50.366, 49.053, 47.712, 46.351, 44.98, 43.606, 42.233, 40.869, 39.516, 38.176, 36.85, 35.533, 34.221, 32.909, 31.589, 30.253, 28.894, 27.501, 26.065, 24.579, 23.036, 21.426, 19.739, 17.962, 16.08, 14.08, 11.949, 9.673, 7.243, 4.647, 1.878, -1.063, -4.175, -7.459, -10.922, -14.582, -18.46, -22.565, -26.902, -31.476, -36.276, -41.285, -46.474, -51.785, -57.163, -62.551, -67.899, -73.175, -78.345, -83.363, -88.173, -92.703, -96.879, -100.654, -103.981, -106.819, -109.169, -111.061, -112.57, -113.829, -114.954, -116.062, -117.286, -118.755, -120.612, -123.011, -126.072, -129.956, -134.898, -141.022, -148.314, -156.553, -165.186, -173.576, -181.124, -187.076, -190.587, -191.099, -188.441, -183.16, -176.721, -170.733, -166.672, -165.987, -169.826, -178.709, -192.215, -208.192, -222.841, -231.905, -230.491, -213.532, -177.066, -117.633, -34.833, 67.055, 184.71, 314.605, 453.228, 600.423, 746.232, 872.228, 961.528, 995.349, 970.643, 902.355, 802.572, 684.711, 553.501, 400.874, 232.87, 64.503, -86.302, -196.555, -263.482, -298.045, -308.915, -306.741, -289.596, -254.09, -209.589, -166.73, -141.138, -139.575, -152.464, -169.835, -180.564, -180.649, -176.298, -170.91, -166.396, -162.914, -157.179, -148.393, -137.697, -125.958, -114.604, -104.669, -96.445, -90.185, -85.977, -83.566, -82.583, -82.776, -83.941, -85.881, -88.477, -91.562, -94.966, -98.618, -102.412, -106.219, -109.914, -113.324, -116.329, -118.896, -121.016, -122.719, -124.057, -125.058, -125.76, -126.23, -126.5, -126.61, -126.581, -126.387, -126.055, -125.639, -125.198, -124.834, -124.613, -124.55, -124.661, -124.947, -125.385, -125.967, -126.665, -127.424, -128.217, -129.022, -129.833, -130.67, -131.528, -132.378, -133.184, -133.886, -134.433, -134.79, -134.914, -134.761, -134.299, -133.5, -132.347, -130.844, -128.983, -126.754, -124.142, -121.124, -117.678, -113.785, -109.435, -104.624, -99.359, -93.656, -87.542, -81.06, -74.255, -67.17, -59.84, -52.288, -44.52, -36.533, -28.319, -19.866, -11.182, -2.29, 6.787, 16.024, 25.41, 34.939, 44.628, 54.508, 64.622, 75.026, 85.751, 96.799, 108.135, 119.681, 131.335, 142.973, 154.492, 165.819, 176.885, 187.631, 197.996, 207.913, 217.3, 226.063, 234.086, 241.232, 247.394, 252.502, 256.54, 259.551, 261.616, 262.859, 263.388, 263.285, 262.626, 261.467, 259.863, 257.865, 255.536, 252.94, 250.171, 247.349, 244.577, 241.938, 239.476, 237.19, 235.047, 232.982, 230.94, 228.879, 226.769, 224.601, 222.375, 220.095, 217.774, 215.426, 213.047, 210.615, 208.109, 205.513, 202.823, 200.06, 197.252, 194.445, 191.68, 188.992, 186.409, 183.944, 181.603, 179.385, 177.278, 175.265, 173.33, 171.467, 169.667, 167.925, 166.231, 164.568, 162.917, 161.257, 159.562, 157.809, 155.973, 154.032, 151.966, 149.758, 147.395, 144.865, 142.157, 139.261, 136.165, 132.856, 129.323, 125.556, 121.544, 117.279, 112.752, 107.96, 102.898, 97.568, 91.968, 86.102, 79.973, 73.586, 66.948, 60.067, 52.951, 45.612, 38.061, 30.311, 22.376, 14.273, 6.017, -2.373, -10.882, -19.492, -28.184, -36.941, -45.747, -54.584, -63.436, -72.287, -81.119, -89.918, -98.667, -107.35, -115.954, -124.463, -132.864, -141.145, -149.293, -157.299, -165.153, -172.847, -180.372, -187.723, -194.892, -201.875, -208.668, -215.268, -221.672, -227.879, -233.889, -239.703, -245.321, -250.745, -255.978, -261.021, -265.878, -270.549, -275.039, -279.349, -283.483, -287.444, -291.236, -294.862, -298.326, -301.632, -304.783, -307.784, -310.638, -313.349, -315.919, -318.351, -320.65, -322.817, -324.856, -326.77, -328.561, -330.231, -331.784, -333.22, -334.543, -335.753, -336.852, -337.842, -338.724, -339.499, -340.17, -340.739, -341.207, -341.579, -341.856, -342.042, -342.139, -342.151, -342.081, -341.932, -341.708, -341.412, -341.047, -340.618, -340.128, -339.582, -338.984, -338.338, -337.649, -336.921, -336.159, -335.367, -334.55, -333.713, -332.861, -331.999, -331.131, -330.262, -329.397, -328.54, -327.696, -326.868, -326.059, -325.273, -324.511, -323.775, -323.066, -322.385, -321.732, -321.106, -320.508, -319.936, -319.389, -318.865, -318.361, -317.874, -317.402, -316.94, -316.485, -316.031, -315.574, -315.109, -314.631, -314.133, -313.61, -313.055, -312.462, -311.825, -311.136, -310.389, -309.577, -308.693, -307.732, -306.686, -305.55, -304.319, -302.989, -301.556, -300.015, -298.366, -296.605, -294.732, -292.745, -290.645, -288.432, -286.108, -283.674, -281.133, -278.487, -275.739, -272.894, -269.956, -266.93, -263.823, -260.638, -257.383, -254.063, -250.687, -247.261, -243.792, -240.287, -236.756, -233.205, -229.644, -226.081, -222.525, -218.984, -215.468, -211.984, -208.542, -205.148, -201.81, -198.532, -195.322, -192.186, -189.13, -186.16, -183.281, -180.502, -177.833, -175.285, -172.866, -170.586, -168.451, -166.468, -164.648, -162.997, -161.523, -160.23, -159.123, -158.207, -157.492, -156.983, -156.682, -156.585, -156.682, -156.965, -157.429, -158.065, -158.864, -159.813, -160.901, -162.123, -163.48, -164.98, -166.618, -168.387, -170.27, -172.252, -174.315, -176.44, -178.595, -180.739, -182.834, -184.833, -186.686, -188.354, -189.782, -190.933, -191.783, -192.275, -192.354, -191.969, -191.043, -189.562, -187.594, -185.139, -182.195, -178.892, -175.417, -172.216, -169.964, -169.017, -169.457, -171.366, -174.686, -179.172, -184.351, -188.897, -190.841, -188.947, -182.694, -172.037, -157.643, -140.446, -121.906, -104.999, -93.74, -91.149, -98.923, -117.484, -145.5, -180.796, -220.016, -257.568, -286.285, -299.415, -291.406, -258.003, -197.222, -108.683, 6.029, 142.289, 293.077, 450.16, 604.712, 747.407, 869.743, 964.153, 1024.605, 1047.72, 1032.249, 979.136, 891.795, 776.255, 640.171, 492.127, 340.827, 194.441, 61.01, -52.523, -141.257, -203.007, -238.07, -248.223, -236.203, -206.016, -163.129, -113.56, -63.127, -16.191, 24.487, 56.573, 78.349, 89.548, 91.213, 85.471, 75.279, 62.99, 50.391, 39.647, 32.539, 29.927, 32.076, 38.401, 47.593, 58.613, 70.434, 81.643, 91.259, 98.779, 103.945, 106.998, 108.445, 108.684, 108.263, 107.887, 107.975, 108.761, 110.361, 112.684, 115.655, 119.253, 123.38, 127.911, 132.77, 137.891, 143.239, 148.814, 154.565, 160.407, 166.25, 171.99, 177.564, 182.939, 188.086, 192.991, 197.645, 202.044, 206.205, 210.153, 213.903, 217.467, 220.854, 224.072, 227.144, 230.096, 232.957, 235.756, 238.517, 241.257, 243.996, 246.747, 249.522, 252.331, 255.18, 258.073, 261.018, 264.022, 267.093, 270.241, 273.469, 276.782, 280.182, 283.672, 287.25, 290.912, 294.652, 298.464, 302.339, 306.265, 310.232, 314.224, 318.228, 322.227, 326.204, 330.141, 334.018, 337.816, 341.513, 345.09, 348.525, 351.798, 354.889, 357.778, 360.447, 362.878, 365.054, 366.961, 368.584, 369.909, 370.925, 371.62, 371.986, 372.014, 371.698, 371.034, 370.019, 368.654, 366.94, 364.882, 362.486, 359.76, 356.715, 353.362, 349.715, 345.788, 341.598, 337.163, 332.501, 327.633, 322.58, 317.362, 312.004, 306.526, 300.951, 295.303, 289.604, 283.875, 278.139, 272.417, 266.729, 261.097, 255.54, 250.077, 244.728, 239.51, 234.439, 229.531, 224.801, 220.26, 215.921, 211.793, 207.884, 204.2, 200.748, 197.531, 194.551, 191.81, 189.307, 187.042, 185.012, 183.212, 181.638, 180.285, 179.145, 178.211, 177.476, 176.93, 176.564, 176.37, 176.337, 176.455, 176.714, 177.104, 177.611, 178.226, 178.936, 179.729, 180.594, 181.518, 182.491, 183.501, 184.538, 185.592, 186.654, 187.714, 188.764, 189.797, 190.805, 191.78, 192.717, 193.61, 194.454, 195.243, 195.974, 196.642, 197.245, 197.78, 198.242, 198.631, 198.942, 199.175, 199.327, 199.396, 199.381, 199.283, 199.099, 198.831, 198.479, 198.044, 197.528, 196.931, 196.257, 195.505, 194.679, 193.779, 192.808, 191.767, 190.658, 189.483, 188.242, 186.939, 185.575, 184.15, 182.667, 181.127, 179.532, 177.882, 176.179, 174.426, 172.624, 170.775, 168.882, 166.948, 164.976, 162.968, 160.929, 158.861, 156.767, 154.651, 152.516, 150.364, 148.198, 146.023, 143.84, 141.654, 139.467, 137.283, 135.106, 132.939, 130.786, 128.652, 126.54, 124.455, 122.4, 120.382, 118.403, 116.471, 114.588, 112.761, 110.995, 109.293, 107.661, 106.102, 104.62, 103.218, 101.899, 100.665, 99.518, 98.46, 97.491, 96.613, 95.826, 95.13, 94.524, 94.008, 93.58, 93.238, 92.98, 92.803, 92.704, 92.678, 92.721, 92.828, 92.993, 93.211, 93.475, 93.776, 94.107, 94.46, 94.825, 95.193, 95.553, 95.897, 96.213, 96.492, 96.723, 96.896, 97.003, 97.033, 96.977, 96.826, 96.573, 96.208, 95.725, 95.116, 94.377, 93.5, 92.481, 91.316, 90.002, 88.536, 86.916, 85.142, 83.214, 81.133, 78.9, 76.52, 73.997, 71.336, 68.544, 65.629, 62.6, 59.465, 56.237, 52.926, 49.545, 46.106, 42.625, 39.113, 35.587, 32.06, 28.547, 25.064, 21.626, 18.247, 14.943, 11.727, 8.615, 5.622, 2.759, 0.041, -2.52, -4.911, -7.123, -9.143, -10.963, -12.576, -13.973, -15.148, -16.097, -16.817, -17.304, -17.558, -17.579, -17.368, -16.927, -16.259, -15.37, -14.264, -12.949, -11.433, -9.722, -7.827, -5.756, -3.521, -1.133, 1.399, 4.061, 6.841, 9.727, 12.704, 15.76, 18.882, 22.054, 25.262, 28.493, 31.731, 34.964, 38.178, 41.36, 44.496, 47.575, 50.585, 53.513, 56.347, 59.072, 61.675, 64.14, 66.454, 68.603, 70.574, 72.354, 73.932, 75.299, 76.449, 77.377, 78.078, 78.542, 78.762, 78.734, 78.455, 77.928, 77.154, 76.139, 74.886, 73.407, 71.716, 69.82, 67.725, 65.421, 62.895, 60.142, 57.16, 53.954, 50.538, 46.927, 43.14, 39.22, 35.21, 31.153, 27.1, 23.08, 19.132, 15.322, 11.702, 8.362, 5.386, 2.822, 0.74, -0.812, -1.84, -2.359, -2.419, -2.138, -1.564, -0.752, 0.032, 0.554, 0.548, -0.302, -2.08, -4.935, -9.205, -14.996, -21.839, -28.99, -35.404, -40.065, -42.68, -42.892, -40.273, -35.001, -28.234, -22.142, -19.496, -22.738, -32.973, -50.659, -75.585, -106.29, -139.637, -170.425, -192.28, -198.828, -184.84, -146.491, -81.337, 11.165, 128.82, 266.473, 416.68, 570.178, 717.215, 848.739, 955.725, 1030.207, 1067.278, 1063.958, 1021.3, 945.548, 841.571, 713.814, 566.601, 400.506, 224.648, 56.268, -88.319, -191.259, -248.591, -271.379, -270.667, -259.474, -243.103, -217.895, -184.322, -144.274, -102.185, -65.662, -38.334, -21.35, -15.08, -17.723, -27.069, -40.888, -55.996, -69.637, -80.25, -86.652, -88.307, -85.438, -78.683, -69.197, -58.737, -49.052, -41.247, -36.082, -33.932, -34.764, -38.4, -44.432, -52.101, -60.508, -69.013, -77.182, -84.777, -91.77, -98.095, -103.684, -108.567, -112.797, -116.407, -119.394, -121.689, -123.2, -123.928, -123.93, -123.33, -122.31, -121.011, -119.547, -118.018, -116.485, -114.991, -113.571, -112.221, -110.92, -109.658, -108.432, -107.267, -106.19, -105.199, -104.276, -103.376, -102.435, -101.404, -100.242, -98.903, -97.359, -95.587, -93.573, -91.32, -88.845, -86.152, -83.244, -80.118, -76.765, -73.186, -69.384, -65.368, -61.148, -56.737, -52.149, -47.404, -42.522, -37.522, -32.42, -27.235, -21.978, -16.669, -11.327, -5.971, -0.625, 4.688, 9.944, 15.116, 20.177, 25.102, 29.864, 34.441, 38.808, 42.943, 46.826, 50.436, 53.755, 56.765, 59.45, 61.797, 63.791, 65.423, 66.683, 67.565, 68.064, 68.178, 67.906, 67.25, 66.215, 64.806, 63.032, 60.902, 58.427, 55.622, 52.499, 49.075, 45.368, 41.397, 37.182, 32.745, 28.109, 23.296, 18.33, 13.234, 8.032, 2.747, -2.598, -7.981, -13.379, -18.771, -24.136, -29.455, -34.707, -39.876, -44.946, -49.901, -54.727, -59.414, -63.951, -68.328, -72.539, -76.577, -80.438, -84.119, -87.617, -90.932, -94.066, -97.021, -99.8, -102.408, -104.852, -107.139, -109.275, -111.27, -113.133, -114.873, -116.5, -118.024, -119.457, -120.808, -122.089, -123.311, -124.485, -125.62, -126.728, -127.817, -128.897, -129.975, -131.06, -132.159, -133.277, -134.42, -135.592, -136.799, -138.042, -139.324, -140.648, -142.013, -143.42, -144.868, -146.357, -147.884, -149.447, -151.043, -152.67, -154.323, -156.0, -157.697, -159.409, -161.133, -162.863, -164.595, -166.324, -168.046, -169.756, -171.449, -173.121, -174.767, -176.385, -177.97, -179.518, -181.028, -182.496, -183.921, -185.299, -186.63, -187.913, -189.146, -190.33, -191.465, -192.55, -193.587, -194.577, -195.52, -196.417, -197.271, -198.081, -198.85, -199.579, -200.269, -200.922, -201.54, -202.123, -202.675, -203.195, -203.687, -204.152, -204.592, -205.007, -205.399, -205.771, -206.123, -206.458, -206.775, -207.078, -207.366, -207.642, -207.906, -208.159, -208.402, -208.635, -208.859, -209.073, -209.279, -209.476, -209.665, -209.847, -210.022, -210.191, -210.355, -210.515, -210.671, -210.824, -210.976, -211.129, -211.282, -211.438, -211.598, -211.765, -211.939, -212.123, -212.318, -212.525, -212.748, -212.985, -213.24, -213.513, -213.805, -214.118, -214.452, -214.808, -215.189, -215.595, -216.026, -216.485, -216.971, -217.485, -218.027, -218.598, -219.196, -219.822, -220.475, -221.154, -221.857, -222.585, -223.334, -224.103, -224.889, -225.689, -226.499, -227.317, -228.136, -228.954, -229.765, -230.564, -231.348, -232.111, -232.849, -233.556, -234.229, -234.862, -235.451, -235.99, -236.475, -236.901, -237.264, -237.56, -237.784, -237.934, -238.005, -237.995, -237.901, -237.719, -237.449, -237.086, -236.629, -236.076, -235.427, -234.68, -233.835, -232.893, -231.855, -230.722, -229.498, -228.185, -226.786, -225.305, -223.744, -222.109, -220.402, -218.627, -216.787, -214.886, -212.928, -210.915, -208.851, -206.74, -204.582, -202.381, -200.137, -197.852, -195.527, -193.162, -190.757, -188.311, -185.826, -183.3, -180.735, -178.13, -175.484, -172.798, -170.07, -167.301, -164.488, -161.629, -158.72, -155.761, -152.748, -149.681, -146.556, -143.375, -140.138, -136.849, -133.515, -130.141, -126.732, -123.294, -119.835, -116.364, -112.893, -109.431, -105.988, -102.573, -99.197, -95.876, -92.626, -89.459, -86.382, -83.399, -80.515, -77.74, -75.083, -72.547, -70.134, -67.842, -65.677, -63.656, -61.798, -60.116, -58.617, -57.301, -56.165, -55.21, -54.43, -53.804, -53.303, -52.896, -52.541, -52.205, -51.862, -51.478, -51.026, -50.488, -49.818, -48.967, -47.889, -46.523, -44.859, -42.97, -40.889, -38.614, -36.261, -34.007, -32.232, -31.532, -32.216, -34.275, -37.715, -42.571, -48.762, -56.052, -63.465, -69.28, -72.39, -72.416, -69.277, -63.174, -54.34, -43.243, -31.86, -23.516, -20.636, -24.957, -37.674, -58.503, -87.155, -121.33, -154.367, -180.92, -197.566, -202.668, -199.676, -184.289, -145.98, -77.793, 29.925, 173.211, 338.309, 518.961, 699.928, 868.15, 1011.476, 1103.797, 1132.572, 1097.118, 1005.596, 884.391, 752.441, 618.356, 487.01, 354.495, 221.373, 95.029, -17.513, -109.074, -176.146, -220.099, -244.107, -251.654, -245.916, -230.409, -208.49, -183.482, -158.689, -135.808, -115.194, -97.337, -82.794, -71.766, -64.674, -61.226, -60.318, -61.458, -64.504, -68.876, -73.715, -78.128, -81.015, -81.882, -80.979, -78.501, -74.709, -70.189, -65.686, -61.854, -59.308, -58.317, -58.715, -60.258, -62.602, -65.245, -67.667, -69.512, -70.541, -70.662, -69.93, -68.405, -66.162, -63.328, -60.036, -56.379, -52.415, -48.181, -43.705, -39.054, -34.323, -29.606, -24.975, -20.475, -16.13, -11.952, -7.95, -4.12, -0.441, 3.115, 6.568, 9.929, 13.201, 16.387, 19.499, 22.554, 25.573, 28.576, 31.582, 34.606, 37.659, 40.751, 43.888, 47.072, 50.304, 53.58, 56.903, 60.274, 63.695, 67.17, 70.7, 74.283, 77.919, 81.604, 85.331, 89.094, 92.882, 96.685, 100.491, 104.287, 108.059, 111.793, 115.474, 119.086, 122.613, 126.037, 129.342, 132.51, 135.522, 138.361, 141.011, 143.453, 145.672, 147.65, 149.374, 150.828, 152.001, 152.881, 153.456, 153.717, 153.657, 153.269, 152.55, 151.495, 150.104, 148.379, 146.321, 143.936, 141.231, 138.216, 134.902, 131.299, 127.424, 123.29, 118.916, 114.318, 109.514, 104.526, 99.372, 94.074, 88.655, 83.136, 77.539, 71.888, 66.205, 60.514, 54.836, 49.194, 43.609, 38.103, 32.697, 27.409, 22.259, 17.264, 12.44, 7.804, 3.368, -0.854, -4.853, -8.618, -12.141, -15.417, -18.441, -21.209, -23.72, -25.973, -27.968, -29.707, -31.192, -32.429, -33.421, -34.174, -34.695, -34.992, -35.073, -34.947, -34.625, -34.116, -33.433, -32.586, -31.588, -30.451, -29.187, -27.808, -26.327, -24.757, -23.11, -21.396, -19.629, -17.819, -15.977, -14.113, -12.237, -10.357, -8.482, -6.619, -4.776, -2.959, -1.175, 0.57, 2.27, 3.921, 5.517, 7.055, 8.529, 9.938, 11.277, 12.545, 13.741, 14.862, 15.907, 16.877, 17.772, 18.59, 19.333, 20.002, 20.597, 21.12, 21.573, 21.957, 22.274, 22.525, 22.714, 22.84, 22.907, 22.915, 22.866, 22.762, 22.604, 22.394, 22.134, 21.826, 21.472, 21.075, 20.636, 20.159, 19.645, 19.096, 18.516, 17.906, 17.268, 16.604, 15.916, 15.206, 14.476, 13.728, 12.964, 12.185, 11.395, 10.594, 9.784, 8.966, 8.144, 7.318, 6.49, 5.663, 4.839, 4.021, 3.211, 2.412, 1.627, 0.858, 0.108, -0.62, -1.325, -2.005, -2.656, -3.277, -3.865, -4.419, -4.935, -5.411, -5.846, -6.236, -6.58, -6.876, -7.121, -7.315, -7.456, -7.543, -7.573, -7.546, -7.462, -7.318, -7.114, -6.851, -6.528, -6.145, -5.705, -5.207, -4.654, -4.049, -3.393, -2.69, -1.942, -1.152, -0.324, 0.539, 1.432, 2.353, 3.295, 4.254, 5.225, 6.203, 7.181, 8.154, 9.116, 10.063, 10.988, 11.886, 12.751, 13.58, 14.366, 15.105, 15.791, 16.42, 16.987, 17.488, 17.919, 18.277, 18.56, 18.766, 18.894, 18.943, 18.915, 18.81, 18.63, 18.375, 18.048, 17.652, 17.191, 16.668, 16.09, 15.46, 14.787, 14.077, 13.338, 12.578, 11.803, 11.023, 10.244, 9.473, 8.72, 7.99, 7.291, 6.633, 6.022, 5.466, 4.974, 4.551, 4.203, 3.936, 3.753, 3.655, 3.643, 3.712, 3.859, 4.082, 4.374, 4.731, 5.141, 5.594, 6.081, 6.596, 7.13, 7.675, 8.219, 8.748, 9.251, 9.724, 10.162, 10.559, 10.906, 11.191, 11.404, 11.548, 11.629, 11.649, 11.602, 11.462, 11.208, 10.829, 10.321, 9.678, 8.893, 7.955, 6.861, 5.642, 4.342, 3.009, 1.699, 0.43, -0.789, -1.948, -3.026, -3.962, -4.656, -5.032, -5.049, -4.679, -3.949, -2.843, -1.271, 0.678, 2.729, 4.444, 5.328, 5.159, 4.086, 2.214, -0.669, -4.667, -9.538, -14.379, -17.817, -19.043, -18.173, -15.625, -11.366, -5.228, 2.518, 10.297, 15.4, 15.562, 9.798, -1.843, -19.417, -43.042, -71.996, -103.508, -132.876, -155.044, -165.413, -160.298, -136.024, -88.883, -18.179, 72.609, 178.777, 296.074, 424.822, 568.273, 722.255, 873.121, 997.612, 1071.79, 1084.954, 1041.734, 960.007, 859.053, 750.59, 638.316, 519.207, 392.798, 264.364, 142.245, 36.716, -46.649, -109.202, -153.282, -179.992, -186.042, -164.936, -116.8, -52.186, 8.971, 46.286, 50.643, 27.858, -4.238, -28.142, -35.255, -26.898, -11.884, 2.401, 13.27, 21.374, 29.572, 38.946, 48.589, 57.328, 63.888, 67.924, 69.864, 70.035, 68.782, 66.469, 63.331, 59.624, 55.621, 51.499, 47.46, 43.734, 40.47, 37.774, 35.729, 34.369, 33.728, 33.819, 34.59, 35.963, 37.855, 40.186, 42.896, 45.931, 49.217, 52.668, 56.193, 59.696, 63.115, 66.414, 69.561, 72.54, 75.345, 77.976, 80.458, 82.83, 85.117, 87.341, 89.518, 91.658, 93.78, 95.907, 98.057, 100.249, 102.499, 104.817, 107.214, 109.702, 112.286, 114.97, 117.755, 120.635, 123.611, 126.685, 129.856, 133.125, 136.492, 139.953, 143.506, 147.148, 150.874, 154.677, 158.546, 162.471, 166.44, 170.442, 174.462, 178.486, 182.498, 186.482, 190.42, 194.295, 198.09, 201.784, 205.361, 208.8, 212.082, 215.189, 218.101, 220.8, 223.267, 225.484, 227.435, 229.104, 230.476, 231.537, 232.275, 232.677, 232.735, 232.44, 231.786, 230.765, 229.376, 227.616, 225.485, 222.987, 220.126, 216.907, 213.338, 209.431, 205.195, 200.645, 195.794, 190.659, 185.257, 179.606, 173.726, 167.637, 161.362, 154.921, 148.339, 141.638, 134.842, 127.976, 121.062, 114.126, 107.19, 100.277, 93.411, 86.614, 79.907, 73.31, 66.844, 60.527, 54.378, 48.411, 42.642, 37.085, 31.751, 26.65, 21.791, 17.181, 12.824, 8.725, 4.885, 1.305, -2.016, -5.08, -7.892, -10.455, -12.777, -14.865, -16.727, -18.372, -19.812, -21.056, -22.116, -23.004, -23.734, -24.316, -24.765, -25.094, -25.315, -25.441, -25.487, -25.464, -25.385, -25.262, -25.106, -24.928, -24.739, -24.547, -24.36, -24.188, -24.035, -23.91, -23.817, -23.76, -23.744, -23.771, -23.843, -23.962, -24.129, -24.344, -24.606, -24.914, -25.268, -25.665, -26.103, -26.58, -27.093, -27.64, -28.218, -28.823, -29.452, -30.101, -30.768, -31.448, -32.139, -32.837, -33.54, -34.245, -34.951, -35.654, -36.353, -37.047, -37.734, -38.412, -39.082, -39.742, -40.392, -41.033, -41.664, -42.286, -42.901, -43.508, -44.109, -44.705, -45.297, -45.886, -46.473, -47.058, -47.643, -48.229, -48.816, -49.406, -50.0, -50.599, -51.202, -51.812, -52.427, -53.049, -53.676, -54.308, -54.944, -55.583, -56.224, -56.866, -57.508, -58.148, -58.784, -59.414, -60.036, -60.646, -61.241, -61.819, -62.376, -62.907, -63.41, -63.88, -64.314, -64.709, -65.06, -65.365, -65.618, -65.816, -65.955, -66.031, -66.039, -65.975, -65.836, -65.617, -65.317, -64.931, -64.457, -63.894, -63.238, -62.487, -61.641, -60.697, -59.653, -58.511, -57.268, -55.925, -54.484, -52.945, -51.31, -49.583, -47.767, -45.866, -43.882, -41.822, -39.689, -37.488, -35.227, -32.911, -30.547, -28.143, -25.707, -23.249, -20.776, -18.299, -15.827, -13.369, -10.933, -8.529, -6.167, -3.855, -1.603, 0.582, 2.689, 4.711, 6.638, 8.462, 10.176, 11.773, 13.248, 14.594, 15.808, 16.887, 17.828, 18.629, 19.29, 19.81, 20.19, 20.432, 20.539, 20.516, 20.366, 20.098, 19.717, 19.234, 18.658, 17.999, 17.267, 16.474, 15.63, 14.747, 13.837, 12.912, 11.982, 11.06, 10.157, 9.286, 8.46, 7.691, 6.988, 6.364, 5.826, 5.384, 5.043, 4.806, 4.675, 4.648, 4.725, 4.903, 5.181, 5.555, 6.021, 6.574, 7.207, 7.912, 8.683, 9.504, 10.363, 11.246, 12.14, 13.035, 13.926, 14.805, 15.669, 16.517, 17.343, 18.136, 18.882, 19.56, 20.151, 20.643, 21.025, 21.286, 21.424, 21.445, 21.363, 21.207, 20.999, 20.754, 20.487, 20.205, 19.934, 19.729, 19.644, 19.727, 20.003, 20.465, 21.127, 22.036, 23.228, 24.688, 26.347, 28.072, 29.784, 31.51, 33.165, 34.482, 35.027, 34.313, 32.05, 28.254, 23.024, 16.37, 8.618, 0.595, -6.348, -10.651, -11.28, -7.975, -1.028, 9.071, 21.155, 33.125, 42.033, 44.683, 38.85, 23.644, -0.545, -32.302, -68.681, -105.184, -136.056, -154.632, -154.798, -131.582, -81.324, -4.052, 96.109, 214.401, 345.57, 487.651, 641.08, 798.742, 945.525, 1058.242, 1112.993, 1100.959, 1030.651, 922.825, 799.848, 670.243, 528.231, 367.667, 190.152, 14.256, -128.181, -216.717, -246.907, -231.51, -197.885, -163.698, -135.419, -112.96, -88.765, -60.793, -32.471, -7.354, 9.908, 17.339, 16.142, 8.275, -3.634, -17.035, -30.046, -41.098, -49.113, -53.373, -53.625, -50.208, -43.89, -35.742, -26.966, -18.754, -11.926, -7.019, -4.305, -3.709, -5.002, -7.835, -11.692, -15.96, -20.187, -24.048, -27.347, -30.068, -32.195, -33.715, -34.673, -35.135, -35.16, -34.8, -34.086, -33.016, -31.609, -29.91, -27.979, -25.902, -23.757, -21.614, -19.523, -17.515, -15.611, -13.824, -12.154, -10.591, -9.117, -7.704, -6.335, -4.994, -3.666, -2.334, -0.976, 0.434, 1.919, 3.5, 5.189, 6.999, 8.939, 11.015, 13.23, 15.584, 18.073, 20.69, 23.431, 26.291, 29.264, 32.343, 35.518, 38.777, 42.109, 45.5, 48.935, 52.396, 55.866, 59.323, 62.747, 66.116, 69.406, 72.594, 75.655, 78.565, 81.299, 83.831, 86.137, 88.191, 89.971, 91.454, 92.617, 93.44, 93.905, 93.993, 93.69, 92.981, 91.855, 90.303, 88.317, 85.892, 83.025, 79.715, 75.964, 71.777, 67.158, 62.117, 56.664, 50.811, 44.573, 37.967, 31.011, 23.725, 16.131, 8.251, 0.109, -8.27, -16.859, -25.633, -34.563, -43.623, -52.785, -62.02, -71.302, -80.603, -89.897, -99.159, -108.365, -117.49, -126.513, -135.413, -144.17, -152.766, -161.186, -169.414, -177.437, -185.245, -192.826, -200.174, -207.282, -214.146, -220.763, -227.131, -233.25, -239.122, -244.748, -250.133, -255.282, -260.2, -264.895, -269.375, -273.649, -277.726, -281.619, -285.336, -288.891, -292.294, -295.557, -298.692, -301.71, -304.623, -307.441, -310.176, -312.838, -315.436, -317.98, -320.479, -322.941, -325.373, -327.78, -330.17, -332.546, -334.912, -337.273, -339.63, -341.986, -344.343, -346.702, -349.064, -351.429, -353.796, -356.166, -358.535, -360.904, -363.268, -365.626, -367.974, -370.309, -372.629, -374.929, -377.207, -379.46, -381.685, -383.878, -386.038, -388.161, -390.244, -392.287, -394.286, -396.241, -398.15, -400.013, -401.829, -403.599, -405.323, -407.002, -408.637, -410.229, -411.78, -413.29, -414.761, -416.196, -417.595, -418.961, -420.297, -421.606, -422.891, -424.154, -425.399, -426.63, -427.849, -429.059, -430.264, -431.466, -432.667, -433.87, -435.078, -436.292, -437.514, -438.746, -439.99, -441.247, -442.516, -443.799, -445.095, -446.404, -447.725, -449.057, -450.4, -451.751, -453.11, -454.474, -455.843, -457.214, -458.586, -459.955, -461.319, -462.675, -464.019, -465.347, -466.656, -467.943, -469.201, -470.429, -471.622, -472.776, -473.888, -474.953, -475.968, -476.929, -477.833, -478.677, -479.457, -480.17, -480.814, -481.386, -481.885, -482.309, -482.656, -482.926, -483.117, -483.23, -483.263, -483.216, -483.089, -482.882, -482.595, -482.229, -481.785, -481.266, -480.672, -480.008, -479.274, -478.476, -477.615, -476.697, -475.723, -474.697, -473.625, -472.508, -471.352, -470.16, -468.937, -467.687, -466.413, -465.121, -463.812, -462.492, -461.163, -459.828, -458.488, -457.147, -455.804, -454.463, -453.122, -451.785, -450.451, -449.12, -447.792, -446.466, -445.141, -443.816, -442.486, -441.149, -439.801, -438.437, -437.051, -435.64, -434.197, -432.716, -431.192, -429.617, -427.985, -426.289, -424.52, -422.671, -420.734, -418.7, -416.562, -414.312, -411.943, -409.45, -406.825, -404.065, -401.164, -398.12, -394.927, -391.584, -388.088, -384.437, -380.628, -376.663, -372.54, -368.262, -363.83, -359.248, -354.521, -349.654, -344.654, -339.526, -334.279, -328.921, -323.458, -317.901, -312.258, -306.541, -300.76, -294.927, -289.053, -283.15, -277.23, -271.304, -265.383, -259.476, -253.592, -247.738, -241.921, -236.145, -230.414, -224.732, -219.103, -213.528, -208.01, -202.553, -197.157, -191.825, -186.557, -181.351, -176.203, -171.106, -166.051, -161.028, -156.024, -151.028, -146.029, -141.017, -135.981, -130.915, -125.813, -120.668, -115.473, -110.215, -104.876, -99.446, -93.921, -88.301, -82.595, -76.823, -71.008, -65.179, -59.368, -53.598, -47.882, -42.219, -36.594, -30.99, -25.384, -19.769, -14.156, -8.549, -2.943, 2.674, 8.321, 14.034, 19.85, 25.822, 32.019, 38.483, 45.235, 52.262, 59.519, 66.956, 74.515, 82.159, 89.879, 97.658, 105.472, 113.301, 121.123, 128.902, 136.612, 144.195, 151.559, 158.644, 165.416, 171.863, 177.995, 183.809, 189.28, 194.38, 199.092, 203.383, 207.214, 210.51, 213.161, 215.068, 216.164, 216.376, 215.581, 213.746, 210.953, 207.498, 204.019, 201.243, 199.817, 200.463, 203.94, 210.643, 220.569, 233.027, 246.306, 258.522, 268.039, 273.268, 273.06, 267.166, 256.298, 242.809, 231.02, 225.866, 232.337, 255.4, 299.063, 366.064, 457.55, 571.84, 704.383, 848.795, 997.038,